RamanShift,CaZn4
49.85,-2.70E-05
50.81,-5.76E-06
51.78,1.44E-05
52.74,3.23E-05
53.71,6.10E-05
54.67,0.000114639
55.64,0.000218567
56.6,0.000313193
57.56,0.00039817
58.53,0.000470237
59.49,0.00052476
60.46,0.000539029
61.42,0.000541207
62.38,0.000524437
63.35,0.000493866
64.31,0.000470845
65.28,0.000495601
66.24,0.000542553
67.21,0.000604373
68.17,0.000675051
69.13,0.000754995
70.1,0.000836543
71.06,0.000917087
72.03,0.000987206
72.99,0.001033072
73.96,0.001042861
74.92,0.001052708
75.88,0.001051497
76.85,0.001042503
77.81,0.00104582
78.78,0.001079241
79.74,0.001118024
80.71,0.001165265
81.67,0.00122017
82.63,0.001265575
83.6,0.001274197
84.56,0.001266419
85.53,0.0012556
86.49,0.001252579
87.45,0.001273853
88.42,0.001333193
89.38,0.001419852
90.35,0.001514689
91.31,0.001584485
92.28,0.001620843
93.24,0.00163459
94.2,0.001618777
95.17,0.001578932
96.13,0.001546253
97.1,0.00150683
98.06,0.001478023
99.03,0.001464317
99.99,0.001466319
100.95,0.001487427
101.92,0.001552457
102.88,0.001632445
103.85,0.001713206
104.81,0.001783548
105.78,0.001833356
106.74,0.001849401
107.7,0.001834449
108.67,0.001793756
109.63,0.001738619
110.6,0.001660053
111.56,0.001615525
112.52,0.001624132
113.49,0.001683752
114.45,0.001731595
115.42,0.001754363
116.38,0.001767096
117.35,0.001775417
118.31,0.001782348
119.27,0.001783941
120.24,0.001785627
121.2,0.001796267
122.17,0.001819557
123.13,0.001852295
124.1,0.001871376
125.06,0.001861676
126.02,0.001831499
126.99,0.001793428
127.95,0.001767296
128.92,0.00176369
129.88,0.001756605
130.85,0.001736571
131.81,0.001705816
132.77,0.001693044
133.74,0.001718666
134.7,0.001749905
135.67,0.001784074
136.63,0.001819378
137.59,0.001837077
138.56,0.001837722
139.52,0.001828228
140.49,0.001807181
141.45,0.001771693
142.42,0.001731027
143.38,0.001689327
144.34,0.001644681
145.31,0.001600971
146.27,0.001563831
147.24,0.001554151
148.2,0.001565886
149.17,0.001595643
150.13,0.001634611
151.09,0.001667246
152.06,0.001690038
153.02,0.001700524
153.99,0.001698089
154.95,0.001684938
155.92,0.001669555
156.88,0.001641149
157.84,0.00161123
158.81,0.00158741
159.77,0.00157271
160.74,0.001569659
161.7,0.001573173
162.66,0.001572599
163.63,0.001562077
164.59,0.001536364
165.56,0.001507363
166.52,0.001502353
167.49,0.001519623
168.45,0.001549917
169.41,0.001578463
170.38,0.00159134
171.34,0.001582127
172.31,0.001557637
173.27,0.001525814
174.24,0.001502043
175.2,0.001489951
176.16,0.001486326
177.13,0.001484045
178.09,0.00147685
179.06,0.001464871
180.02,0.001468492
180.99,0.001486057
181.95,0.001509081
182.91,0.001527579
183.88,0.001531997
184.84,0.001516892
185.81,0.001501457
186.77,0.001495241
187.74,0.001503676
188.7,0.00151776
189.66,0.001518502
190.63,0.001505663
191.59,0.001485499
192.56,0.001468369
193.52,0.001474047
194.48,0.001494492
195.45,0.001498494
196.41,0.001482746
197.38,0.001456853
198.34,0.001451907
199.31,0.001474997
200.27,0.001505519
201.23,0.001537276
202.2,0.001562974
203.16,0.001578479
204.13,0.001587557
205.09,0.001601264
206.06,0.0016276
207.02,0.001662756
207.98,0.001679777
208.95,0.001654806
209.91,0.001640053
210.88,0.00165691
211.84,0.001709862
212.81,0.001751419
213.77,0.001752586
214.73,0.001748473
215.7,0.00175458
216.66,0.001779232
217.63,0.001813622
218.59,0.001845065
219.55,0.001869344
220.52,0.001884299
221.48,0.001890543
222.45,0.001888158
223.41,0.001888743
224.38,0.00188488
225.34,0.001878478
226.3,0.001876298
227.27,0.001911107
228.23,0.001946112
229.2,0.001972455
230.16,0.001997725
231.13,0.002038289
232.09,0.002093041
233.05,0.002128489
234.02,0.002140846
234.98,0.002130573
235.95,0.002107015
236.91,0.002090063
237.88,0.002097012
238.84,0.002117135
239.8,0.002145924
240.77,0.002179966
241.73,0.002221585
242.7,0.002273677
243.66,0.002327384
244.62,0.002371496
245.59,0.002399634
246.55,0.002412504
247.52,0.002429342
248.48,0.002446097
249.45,0.002460436
250.41,0.002472017
251.37,0.002490176
252.34,0.002508509
253.3,0.002532104
254.27,0.002568013
255.23,0.002614843
256.2,0.002647281
257.16,0.002640235
258.12,0.002616484
259.09,0.002603469
260.05,0.002623327
261.02,0.002692246
261.98,0.002761655
262.95,0.002806433
263.91,0.002820157
264.87,0.002805333
265.84,0.002761598
266.8,0.002734397
267.77,0.002735923
268.73,0.002754692
269.69,0.002772051
270.66,0.002776294
271.62,0.002799586
272.59,0.00284253
273.55,0.002890147
274.52,0.002924685
275.48,0.002932008
276.44,0.002899598
277.41,0.002839241
278.37,0.002781034
279.34,0.002753177
280.3,0.002790182
281.27,0.002851046
282.23,0.002923286
283.19,0.002997736
284.16,0.003060207
285.12,0.003060706
286.09,0.003032274
287.05,0.003035574
288.02,0.003076211
288.98,0.003138199
289.94,0.003185912
290.91,0.003186322
291.87,0.003169862
292.84,0.00315657
293.8,0.003161256
294.76,0.003196124
295.73,0.00326003
296.69,0.003319199
297.66,0.00337894
298.62,0.003442395
299.59,0.003525428
300.55,0.003586456
301.51,0.003594003
302.48,0.003591131
303.44,0.003589693
304.41,0.003581177
305.37,0.003540364
306.34,0.003515205
307.3,0.003534251
308.26,0.003594669
309.23,0.003679151
310.19,0.00376232
311.16,0.003820738
312.12,0.003859235
313.09,0.003890726
314.05,0.0039333
315.01,0.004005824
315.98,0.004080878
316.94,0.00412818
317.91,0.00414958
318.87,0.004148153
319.83,0.004123772
320.8,0.004106804
321.76,0.004143038
322.73,0.004210376
323.69,0.004285757
324.66,0.004336547
325.62,0.004385522
326.58,0.00443869
327.55,0.004484461
328.51,0.004524384
329.48,0.004570616
330.44,0.004638829
331.41,0.004717649
332.37,0.004802847
333.33,0.004896686
334.3,0.004999447
335.26,0.005094595
336.23,0.005170099
337.19,0.005241802
338.16,0.005334721
339.12,0.005465321
340.08,0.005648802
341.05,0.005821309
342.01,0.005948743
342.98,0.006037246
343.94,0.00609017
344.91,0.006111706
345.87,0.006160711
346.83,0.006282661
347.8,0.006452885
348.76,0.006643475
349.73,0.006820461
350.69,0.006970187
351.65,0.007099057
352.62,0.007204895
353.58,0.007300112
354.55,0.007402755
355.51,0.007545648
356.48,0.007714202
357.44,0.007894741
358.4,0.008074223
359.37,0.008239418
360.33,0.008371446
361.3,0.008465973
362.26,0.008567539
363.23,0.008679096
364.19,0.008784064
365.15,0.008855052
366.12,0.008942816
367.08,0.009091075
368.05,0.009268495
369.01,0.009434997
369.98,0.009562904
370.94,0.009679412
371.9,0.009813075
372.87,0.009952587
373.83,0.010092521
374.8,0.010240776
375.76,0.010382295
376.72,0.010500496
377.69,0.010639
378.65,0.010787609
379.62,0.010927625
380.58,0.011041157
381.55,0.011135951
382.51,0.011179102
383.47,0.011192612
384.44,0.011226161
385.4,0.01133897
386.37,0.011547611
387.33,0.011737008
388.3,0.011875048
389.26,0.011962912
390.22,0.012013092
391.19,0.012038311
392.15,0.012086007
393.12,0.012195614
394.08,0.012338691
395.05,0.01249061
396.01,0.012645465
396.97,0.012775177
397.94,0.012866808
398.9,0.012916593
399.87,0.012927482
400.83,0.012908818
401.79,0.012913512
402.76,0.012979315
403.72,0.013079383
404.69,0.013169611
405.65,0.013224978
406.62,0.013272789
407.58,0.013411793
408.54,0.013573089
409.51,0.013686755
410.47,0.013702545
411.44,0.013623047
412.4,0.013547816
413.37,0.013568378
414.33,0.013629741
415.29,0.013663582
416.26,0.013636747
417.22,0.013583991
418.19,0.013581311
419.15,0.013625541
420.12,0.013684239
421.08,0.01371728
422.04,0.013696541
423.01,0.013633279
423.97,0.013557522
424.94,0.013472882
425.9,0.013389933
426.86,0.013337817
427.83,0.013351757
428.79,0.013350737
429.76,0.013326611
430.72,0.013310446
431.69,0.013314763
432.65,0.013283344
433.61,0.013195713
434.58,0.013145954
435.54,0.013133695
436.51,0.013127414
437.47,0.013075895
438.44,0.012937764
439.4,0.012783237
440.36,0.012660578
441.33,0.012567348
442.29,0.01249114
443.26,0.012423639
444.22,0.012403761
445.19,0.012420412
446.15,0.012445791
447.11,0.012471115
448.08,0.012505919
449.04,0.012561965
450.01,0.012525764
450.97,0.01241442
451.93,0.012292933
452.9,0.012205101
453.86,0.012144417
454.83,0.012077186
455.79,0.012018503
456.76,0.011931237
457.72,0.011795515
458.68,0.011614429
459.65,0.01147375
460.61,0.011430687
461.58,0.011435459
462.54,0.011443016
463.51,0.011434596
464.47,0.011416035
465.43,0.011419845
466.4,0.011426985
467.36,0.011410982
468.33,0.011346013
469.29,0.011227897
470.26,0.011076437
471.22,0.01097303
472.18,0.010928275
473.15,0.010909828
474.11,0.01089419
475.08,0.010871934
476.04,0.010882445
477.01,0.010913204
477.97,0.010930318
478.93,0.010923828
479.9,0.010907274
480.86,0.01090711
481.83,0.0109308
482.79,0.010967828
483.75,0.010994643
484.72,0.010994379
485.68,0.010938853
486.65,0.01084191
487.61,0.010726806
488.58,0.01056971
489.54,0.010394091
490.5,0.010227825
491.47,0.01010954
492.43,0.010021677
493.4,0.009940424
494.36,0.00987947
495.33,0.009835862
496.29,0.009777586
497.25,0.00966932
498.22,0.009528669
499.18,0.009383421
500.15,0.009276698
501.11,0.009226316
502.08,0.009240203
503.04,0.009217977
504,0.00913065
504.97,0.009035745
505.93,0.008936416
506.9,0.0088403
507.86,0.008761582
508.82,0.008759006
509.79,0.008752774
510.75,0.008698581
511.72,0.008596413
512.68,0.008482383
513.65,0.008401075
514.61,0.008326521
515.57,0.008218082
516.54,0.008094253
517.5,0.007965846
518.47,0.007848097
519.43,0.007695759
520.4,0.007497588
521.36,0.007268088
522.32,0.007037342
523.29,0.006835817
524.25,0.006686273
525.22,0.006555041
526.18,0.006350524
527.15,0.00611443
528.11,0.00589617
529.07,0.005753678
530.04,0.005714499
531,0.005717473
531.97,0.005701073
532.93,0.005668988
533.89,0.005617243
534.86,0.00552233
535.82,0.00534092
536.79,0.00507243
537.75,0.004814378
538.72,0.004578702
539.68,0.004365454
540.64,0.004143249
541.61,0.003900196
542.57,0.003763178
543.54,0.003736992
544.5,0.003746546
545.47,0.003708113
546.43,0.003561178
547.39,0.003357261
548.36,0.003144305
549.32,0.002889955
550.29,0.002581772
551.25,0.002243759
552.22,0.001932602
553.18,0.001734128
554.14,0.00164501
555.11,0.00163321
556.07,0.001625483
557.04,0.001568315
558,0.00144908
558.96,0.001420177
559.93,0.001378667
560.89,0.001237401
561.86,0.0009873
562.82,0.000690259
563.79,0.00040435
564.75,0.000180028
565.71,5.12E-05
566.68,1.68E-06
567.64,1.10E-05
568.61,4.14E-05
569.57,9.32E-05
570.54,0.000123959
571.5,0.00013364
572.46,0.000143361
573.43,0.000174407
574.39,0.000239911
575.36,0.000271303
576.32,0.000259908
577.29,0.000274242
578.25,0.00031462
579.21,0.000359499
580.18,0.000374138
581.14,0.000445416
582.11,0.000621471
583.07,0.000837639
584.03,0.001037229
585,0.00118062
585.96,0.001258766
586.93,0.001288753
587.89,0.00132332
588.86,0.001406613
589.82,0.00159222
590.78,0.001885174
591.75,0.002246069
592.71,0.002452428
593.68,0.002588111
594.64,0.002724374
595.61,0.002883602
596.57,0.003065985
597.53,0.003271637
598.5,0.003464567
599.46,0.003603977
600.43,0.003712198
601.39,0.003829929
602.36,0.003975438
603.32,0.004130651
604.28,0.004318474
605.25,0.00461246
606.21,0.004994795
607.18,0.005351121
608.14,0.00557515
609.1,0.00563374
610.07,0.005724958
611.03,0.005941673
612,0.006205788
612.96,0.006428975
613.93,0.00657839
614.89,0.006756375
615.85,0.007108406
616.82,0.007480693
617.78,0.007821383
618.75,0.008116313
619.71,0.008393399
620.68,0.008657415
621.64,0.008855941
622.6,0.009002964
623.57,0.009136265
624.53,0.009284251
625.5,0.009456804
626.46,0.009668148
627.43,0.009971606
628.39,0.010300082
629.35,0.010557545
630.32,0.010738767
631.28,0.010910875
632.25,0.011175756
633.21,0.011616355
634.18,0.012083068
635.14,0.012468487
636.1,0.012747794
637.07,0.012920624
638.03,0.013030118
639,0.013194161
639.96,0.013521047
640.92,0.013947753
641.89,0.014351481
642.85,0.014637637
643.82,0.014796042
644.78,0.014929854
645.75,0.015104117
646.71,0.015358582
647.67,0.015748946
648.64,0.016246044
649.6,0.016719665
650.57,0.016953809
651.53,0.017102906
652.5,0.017293067
653.46,0.017503769
654.42,0.017725331
655.39,0.017993538
656.35,0.01839969
657.32,0.018838076
658.28,0.019190894
659.25,0.019483914
660.21,0.019736588
661.17,0.019974676
662.14,0.020188092
663.1,0.020494625
664.07,0.020848965
665.03,0.02117311
665.99,0.021436145
666.96,0.021638091
667.92,0.021814281
668.89,0.022001767
669.85,0.022189489
670.82,0.022383255
671.78,0.022577323
672.74,0.022771958
673.71,0.02294646
674.67,0.022994715
675.64,0.022969457
676.6,0.022985927
677.57,0.023103319
678.53,0.023268362
679.49,0.023311611
680.46,0.023030448
681.42,0.022801092
682.39,0.022726117
683.35,0.022746727
684.32,0.022799823
685.28,0.022847282
686.24,0.022808657
687.21,0.022640662
688.17,0.022455415
689.14,0.022318382
690.1,0.022240053
691.06,0.022193899
692.03,0.022131483
692.99,0.022013866
693.96,0.021786864
694.92,0.021487489
695.89,0.021203706
696.85,0.021061162
697.81,0.021077493
698.78,0.021044465
699.74,0.020856445
700.71,0.020601591
701.67,0.020373147
702.64,0.020210658
703.6,0.020130514
704.56,0.020189116
705.53,0.020359621
706.49,0.020507954
707.46,0.020606648
708.42,0.02071652
709.39,0.020939192
710.35,0.02127467
711.31,0.021414078
712.28,0.021322815
713.24,0.02123645
714.21,0.021325467
715.17,0.021584564
716.13,0.021787668
717.1,0.021752529
718.06,0.021796752
719.03,0.02202402
719.99,0.022343195
720.96,0.022617772
721.92,0.022772342
722.88,0.022887068
723.85,0.022979309
724.81,0.023054147
725.78,0.023187247
726.74,0.023418726
727.71,0.023720788
728.67,0.023924712
729.63,0.023989518
730.6,0.024095565
731.56,0.024259909
732.53,0.024477656
733.49,0.024736634
734.46,0.025002522
735.42,0.025186651
736.38,0.025277035
737.35,0.025403337
738.31,0.025659459
739.28,0.026052718
740.24,0.026494212
741.2,0.026842077
742.17,0.027090303
743.13,0.027404299
744.1,0.027785133
745.06,0.028142893
746.03,0.028406314
746.99,0.028592131
747.95,0.028772469
748.92,0.02876724
749.88,0.028779555
750.85,0.028900706
751.81,0.029082219
752.78,0.029210025
753.74,0.029362039
754.7,0.029599333
755.67,0.029764717
756.63,0.029820489
757.6,0.029785171
758.56,0.029682014
759.53,0.029542098
760.49,0.029413423
761.45,0.029339454
762.42,0.029259386
763.38,0.029129292
764.35,0.028943485
765.31,0.028670098
766.28,0.028241346
767.24,0.02777977
768.2,0.027353856
769.17,0.026914418
770.13,0.026429493
771.1,0.025887148
772.06,0.02533018
773.02,0.02481515
773.99,0.024292398
774.95,0.023692302
775.92,0.023002526
776.88,0.022266098
777.85,0.021514949
778.81,0.020716921
779.77,0.019846737
780.74,0.019037302
781.7,0.018301227
782.67,0.017550238
783.63,0.01673946
784.6,0.015862418
785.56,0.01492506
786.52,0.014055095
787.49,0.013316975
788.45,0.012685482
789.42,0.012116306
790.38,0.011551759
791.35,0.010940307
792.31,0.01029468
793.27,0.00966643
794.24,0.009081555
795.2,0.008501322
796.17,0.007899803
797.13,0.007244458
798.09,0.00654795
799.06,0.005940645
800.02,0.005481761
800.99,0.005152309
801.95,0.004893956
802.92,0.004654467
803.88,0.004433991
804.84,0.004285263
805.81,0.004096474
806.77,0.00386754
807.74,0.003651086
808.7,0.003480392
809.67,0.003362177
810.63,0.003237019
811.59,0.003058272
812.56,0.002912236
813.52,0.002805857
814.49,0.002719132
815.45,0.002652299
816.42,0.002658915
817.38,0.002799854
818.34,0.002941211
819.31,0.003076188
820.27,0.003272294
821.24,0.003489177
822.2,0.00367971
823.16,0.003816631
824.13,0.003919983
825.09,0.003955781
826.06,0.003910012
827.02,0.003843723
827.99,0.003824929
828.95,0.003908597
829.91,0.004101965
830.88,0.004357501
831.84,0.004600103
832.81,0.004843367
833.77,0.005142414
834.74,0.005421619
835.7,0.005549834
836.66,0.00549872
837.63,0.005558159
838.59,0.005874238
839.56,0.006170369
840.52,0.006328345
841.49,0.006354489
842.45,0.006352831
843.41,0.006400019
844.38,0.006510236
845.34,0.006585762
846.31,0.006598386
847.27,0.00658296
848.23,0.006539354
849.2,0.006495599
850.16,0.006550435
851.13,0.006880792
852.09,0.007070665
853.06,0.006914069
854.02,0.006650658
854.98,0.006500108
855.95,0.006498446
856.91,0.006539517
857.88,0.006659125
858.84,0.006779078
859.81,0.006784909
860.77,0.006676174
861.73,0.006531265
862.7,0.006429012
863.66,0.006369636
864.63,0.006338871
865.59,0.006394574
866.56,0.006450409
867.52,0.00629667
868.48,0.005983163
869.45,0.005763029
870.41,0.00580376
871.38,0.005764567
872.34,0.005586912
873.3,0.005467112
874.27,0.005317724
875.23,0.005116761
876.2,0.00495181
877.16,0.004933112
878.13,0.004936352
879.09,0.004770506
880.05,0.004537932
881.02,0.004326784
881.98,0.004137264
882.95,0.003954565
883.91,0.003741797
884.88,0.003506154
885.84,0.003344166
886.8,0.003345309
887.77,0.003368722
888.73,0.003265541
889.7,0.003012707
890.66,0.002774218
891.63,0.002662263
892.59,0.002610041
893.55,0.002580209
894.52,0.002565258
895.48,0.002603024
896.45,0.002708656
897.41,0.002859933
898.37,0.002981397
899.34,0.003019889
900.3,0.003081292
901.27,0.003241427
902.23,0.003432455
903.2,0.003532653
904.16,0.00347321
905.12,0.003436505
906.09,0.003567675
907.05,0.003783389
908.02,0.004053237
908.98,0.00436988
909.95,0.00470268
910.91,0.005021032
911.87,0.005294032
912.84,0.005629399
913.8,0.006089209
914.77,0.006565664
915.73,0.006996962
916.7,0.007390624
917.66,0.007793136
918.62,0.008196659
919.59,0.008515586
920.55,0.008757531
921.52,0.009015655
922.48,0.0092979
923.45,0.009651307
924.41,0.01009955
925.37,0.010674495
926.34,0.011313727
927.3,0.011962466
928.27,0.012502721
929.23,0.012847245
930.19,0.013042562
931.16,0.013214811
932.12,0.01352192
933.09,0.013901215
934.05,0.014257621
935.02,0.014734128
935.98,0.015164054
936.94,0.015459622
937.91,0.015684251
938.87,0.015981245
939.84,0.016319079
940.8,0.01662557
941.77,0.01698907
942.73,0.017353392
943.69,0.017670367
944.66,0.017948019
945.62,0.018177821
946.59,0.018367975
947.55,0.018542322
948.52,0.018814308
949.48,0.019094868
950.44,0.019262621
951.41,0.019325267
952.37,0.019387925
953.34,0.01958113
954.3,0.019937716
955.26,0.020229851
956.23,0.020277592
957.19,0.020186264
958.16,0.020094748
959.12,0.020134022
960.09,0.020346104
961.05,0.020690074
962.01,0.020993761
962.98,0.021116868
963.94,0.021165813
964.91,0.021157154
965.87,0.021057262
966.84,0.020915734
967.8,0.020831767
968.76,0.020772456
969.73,0.0207464
970.69,0.020903346
971.66,0.02111085
972.62,0.021268529
973.59,0.021343138
974.55,0.021334063
975.51,0.021249482
976.48,0.021189998
977.44,0.021365361
978.41,0.021600262
979.37,0.02164178
980.33,0.021379761
981.3,0.020982131
982.26,0.020760887
983.23,0.020860863
984.19,0.020926949
985.16,0.020772711
986.12,0.020626437
987.08,0.020547797
988.05,0.020452054
989.01,0.020313295
989.98,0.020165691
990.94,0.020094603
991.91,0.020168867
992.87,0.020200245
993.83,0.020103042
994.8,0.019911228
995.76,0.019710211
996.73,0.019500118
997.69,0.019168686
998.66,0.018698438
999.62,0.018330642
1000.58,0.018013738
1001.55,0.017626934
1002.51,0.01724777
1003.48,0.016963213
1004.44,0.016703968
1005.41,0.016400646
1006.37,0.01615744
1007.33,0.015861335
1008.3,0.015381102
1009.26,0.014812086
1010.23,0.01426803
1011.19,0.013827849
1012.15,0.013465591
1013.12,0.013102507
1014.08,0.012659323
1015.05,0.012356091
1016.01,0.012263753
1016.98,0.01218006
1017.94,0.01193699
1018.9,0.011533949
1019.87,0.011076785
1020.83,0.010671698
1021.8,0.010416798
1022.76,0.010205702
1023.73,0.009994203
1024.69,0.00972855
1025.65,0.009390912
1026.62,0.009061413
1027.58,0.008856458
1028.55,0.008785379
1029.51,0.008615457
1030.48,0.008283491
1031.44,0.007878812
1032.4,0.007509196
1033.37,0.007219819
1034.33,0.007001965
1035.3,0.006792618
1036.26,0.006655168
1037.23,0.006716593
1038.19,0.006687543
1039.15,0.006395211
1040.12,0.005984057
1041.08,0.005653848
1042.05,0.005486798
1043.01,0.005337652
1043.97,0.005078607
1044.94,0.004828072
1045.9,0.004723427
1046.87,0.004691813
1047.83,0.004605143
1048.8,0.004334576
1049.76,0.003953118
1050.72,0.003718066
1051.69,0.003786544
1052.65,0.00379989
1053.62,0.003610023
1054.58,0.003364317
1055.55,0.003201314
1056.51,0.003121436
1057.47,0.002995006
1058.44,0.002756755
1059.4,0.002462227
1060.37,0.002194913
1061.33,0.001927081
1062.3,0.001667907
1063.26,0.001445619
1064.22,0.001325748
1065.19,0.001308559
1066.15,0.001385205
1067.12,0.001396267
1068.08,0.001275887
1069.04,0.001117633
1070.01,0.000949533
1070.97,0.000828311
1071.94,0.000725637
1072.9,0.000585037
1073.87,0.000387281
1074.83,0.000208139
1075.79,9.50E-05
1076.76,1.95E-05
1077.72,1.04E-06
1078.69,3.95E-05
1079.65,0.000144955
1080.62,0.000269615
1081.58,0.00030874
1082.54,0.000242824
1083.51,0.000406393
1084.47,0.000695005
1085.44,0.000936254
1086.4,0.001043715
1087.37,0.001055235
1088.33,0.001095756
1089.29,0.00129057
1090.26,0.001572586
1091.22,0.001816703
1092.19,0.001993663
1093.15,0.002093678
1094.11,0.002097035
1095.08,0.002013065
1096.04,0.001861015
1097.01,0.001659972
1097.97,0.001546171
1098.94,0.001626954
1099.9,0.001795818
1100.86,0.001935776
1101.83,0.002046676
1102.79,0.002118763
1103.76,0.002122391
1104.72,0.002086868
1105.69,0.002061057
1106.65,0.002182738
1107.61,0.002550778
1108.58,0.003027976
1109.54,0.003466865
1110.51,0.003837566
1111.47,0.004090535
1112.44,0.004195579
1113.4,0.00416222
1114.36,0.004317253
1115.33,0.004998895
1116.29,0.005652262
1117.26,0.006187646
1118.22,0.00669437
1119.18,0.007122423
1120.15,0.007401659
1121.11,0.007651544
1122.08,0.00804208
1123.04,0.008523643
1124.01,0.008946113
1124.97,0.009359471
1125.93,0.009753632
1126.9,0.010068196
1127.86,0.01027264
1128.83,0.010366711
1129.79,0.01051132
1130.76,0.010929189
1131.72,0.011631184
1132.68,0.012284144
1133.65,0.012735773
1134.61,0.013076674
1135.58,0.013530103
1136.54,0.014096428
1137.51,0.014602917
1138.47,0.014875964
1139.43,0.015159776
1140.4,0.015832539
1141.36,0.016629374
1142.33,0.01723357
1143.29,0.017654368
1144.25,0.018127439
1145.22,0.018848203
1146.18,0.019755351
1147.15,0.020510242
1148.11,0.020988384
1149.08,0.021416069
1150.04,0.02190656
1151,0.022428968
1151.97,0.022983854
1152.93,0.023549992
1153.9,0.024148675
1154.86,0.024738049
1155.83,0.025287238
1156.79,0.025847783
1157.75,0.026388747
1158.72,0.026805891
1159.68,0.027108872
1160.65,0.0274023
1161.61,0.027779782
1162.58,0.02829434
1163.54,0.028945998
1164.5,0.029756485
1165.47,0.03033777
1166.43,0.030625575
1167.4,0.030882587
1168.36,0.031245334
1169.32,0.031693181
1170.29,0.032099921
1171.25,0.03240161
1172.22,0.032725293
1173.18,0.03331408
1174.15,0.034042385
1175.11,0.034601938
1176.07,0.034928914
1177.04,0.035214237
1178,0.03570216
1178.97,0.03637267
1179.93,0.036926843
1180.9,0.037151231
1181.86,0.037418503
1182.82,0.037772017
1183.79,0.037922889
1184.75,0.037902055
1185.72,0.037945849
1186.68,0.038247481
1187.65,0.038754459
1188.61,0.039283661
1189.57,0.039598209
1190.54,0.039697861
1191.5,0.039829641
1192.47,0.040102798
1193.43,0.040365191
1194.4,0.040433362
1195.36,0.040468612
1196.32,0.040775548
1197.29,0.041322729
1198.25,0.041533072
1199.22,0.041232064
1200.18,0.041115463
1201.14,0.041282568
1202.11,0.041504826
1203.07,0.04170536
1204.04,0.041862759
1205,0.042009106
1205.97,0.04213418
1206.93,0.042281071
1207.89,0.042450189
1208.86,0.042641946
1209.82,0.042877874
1210.79,0.04322489
1211.75,0.043527908
1212.72,0.043621992
1213.68,0.043505459
1214.64,0.04334441
1215.61,0.043249844
1216.57,0.043088054
1217.54,0.042792856
1218.5,0.042674727
1219.47,0.042801596
1220.43,0.043028628
1221.39,0.04314447
1222.36,0.043104563
1223.32,0.043052863
1224.29,0.043225394
1225.25,0.043689035
1226.21,0.043940462
1227.18,0.043597798
1228.14,0.043366391
1229.11,0.04358475
1230.07,0.043926998
1231.04,0.044056162
1232,0.043982062
1232.96,0.043851265
1233.93,0.043641334
1234.89,0.043430671
1235.86,0.043503081
1236.82,0.043733876
1237.79,0.043806708
1238.75,0.043640521
1239.71,0.043451177
1240.68,0.043444018
1241.64,0.043539012
1242.61,0.04344062
1243.57,0.043193032
1244.54,0.04310538
1245.5,0.043143027
1246.46,0.043272321
1247.43,0.043413608
1248.39,0.043508971
1249.36,0.043512873
1250.32,0.043470367
1251.28,0.04343922
1252.25,0.043477421
1253.21,0.043584624
1254.18,0.043646116
1255.14,0.043649528
1256.11,0.043572219
1257.07,0.043424971
1258.03,0.043312027
1259,0.043315287
1259.96,0.043422703
1260.93,0.043507455
1261.89,0.043615136
1262.86,0.043770017
1263.82,0.043948128
1264.78,0.044114847
1265.75,0.044282281
1266.71,0.044414427
1267.68,0.044476965
1268.64,0.044504053
1269.61,0.044613592
1270.57,0.044922588
1271.53,0.045338042
1272.5,0.045519244
1273.46,0.045441128
1274.43,0.045316206
1275.39,0.045249513
1276.35,0.04527713
1277.32,0.045305311
1278.28,0.045273709
1279.25,0.045230706
1280.21,0.045281969
1281.18,0.045488062
1282.14,0.045979236
1283.1,0.046519
1284.07,0.046810056
1285.03,0.046850961
1286,0.046856559
1286.96,0.046969216
1287.93,0.047154102
1288.89,0.047303022
1289.85,0.047380297
1290.82,0.047578019
1291.78,0.048123588
1292.75,0.048610574
1293.71,0.048905681
1294.68,0.049129569
1295.64,0.049317179
1296.6,0.049468901
1297.57,0.049645485
1298.53,0.049918617
1299.5,0.050253058
1300.46,0.050490839
1301.42,0.05059583
1302.39,0.05058004
1303.35,0.050466504
1304.32,0.050426219
1305.28,0.050640734
1306.25,0.051148336
1307.21,0.051680707
1308.17,0.051970024
1309.14,0.052028439
1310.1,0.052086368
1311.07,0.052254849
1312.03,0.052655998
1313,0.053242132
1313.96,0.053791973
1314.92,0.054134106
1315.89,0.054231345
1316.85,0.054168291
1317.82,0.054117894
1318.78,0.054140883
1319.75,0.05415191
1320.71,0.054360121
1321.67,0.054914881
1322.64,0.055372151
1323.6,0.055519939
1324.57,0.055594074
1325.53,0.055779556
1326.5,0.056052715
1327.46,0.056363192
1328.42,0.05673642
1329.39,0.057023617
1330.35,0.056911606
1331.32,0.056687629
1332.28,0.056637401
1333.24,0.056824769
1334.21,0.057213289
1335.17,0.05767709
1336.14,0.058079667
1337.1,0.05825623
1338.07,0.05820753
1339.03,0.058095059
1339.99,0.058120921
1340.96,0.058411986
1341.92,0.058766147
1342.89,0.059020329
1343.85,0.059211261
1344.82,0.059339669
1345.78,0.059277838
1346.74,0.059025685
1347.71,0.058786236
1348.67,0.058787079
1349.64,0.058940816
1350.6,0.059030697
1351.57,0.059121114
1352.53,0.059275028
1353.49,0.059441779
1354.46,0.059519945
1355.42,0.059495334
1356.39,0.059445711
1357.35,0.059510591
1358.31,0.059780479
1359.28,0.060051499
1360.24,0.060142692
1361.21,0.060208719
1362.17,0.0603128
1363.14,0.060482101
1364.1,0.060766935
1365.06,0.06116847
1366.03,0.061467944
1366.99,0.061457182
1367.96,0.06120094
1368.92,0.060943542
1369.89,0.060621482
1370.85,0.060453725
1371.81,0.060519474
1372.78,0.060598845
1373.74,0.060677696
1374.71,0.060757325
1375.67,0.060823268
1376.64,0.060850693
1377.6,0.06092987
1378.56,0.061113685
1379.53,0.061337597
1380.49,0.061443387
1381.46,0.061392581
1382.42,0.061328018
1383.38,0.061276256
1384.35,0.061093587
1385.31,0.060659934
1386.28,0.060239016
1387.24,0.060159501
1388.21,0.060331005
1389.17,0.060317424
1390.13,0.059893865
1391.1,0.059456919
1392.06,0.059521577
1393.03,0.059812294
1393.99,0.059970234
1394.96,0.059916501
1395.92,0.059675949
1396.88,0.059262077
1397.85,0.058834481
1398.81,0.058632024
1399.78,0.058643239
1400.74,0.058533676
1401.71,0.058143748
1402.67,0.057672221
1403.63,0.0572667
1404.6,0.056941308
1405.56,0.056789206
1406.53,0.05681168
1407.49,0.056968089
1408.45,0.057138023
1409.42,0.05717425
1410.38,0.056994343
1411.35,0.056693196
1412.31,0.056512378
1413.28,0.056453423
1414.24,0.056190772
1415.2,0.055670538
1416.17,0.055244508
1417.13,0.054966406
1418.1,0.054810396
1419.06,0.054735024
1420.03,0.054659958
1420.99,0.054584172
1421.95,0.054562802
1422.92,0.05451443
1423.88,0.054383513
1424.85,0.054170984
1425.81,0.053807114
1426.78,0.053292506
1427.74,0.052899659
1428.7,0.052711658
1429.67,0.052468861
1430.63,0.052101476
1431.6,0.051747593
1432.56,0.051213816
1433.52,0.050307237
1434.49,0.049730064
1435.45,0.049910156
1436.42,0.050090973
1437.38,0.050064298
1438.35,0.04989966
1439.31,0.049540382
1440.27,0.049014124
1441.24,0.048515193
1442.2,0.04818129
1443.17,0.048027934
1444.13,0.047915376
1445.1,0.047719628
1446.06,0.047383718
1447.02,0.046991377
1447.99,0.046668491
1448.95,0.046400411
1449.92,0.046132223
1450.88,0.045877206
1451.85,0.045607955
1452.81,0.0452256
1453.77,0.044800559
1454.74,0.044515552
1455.7,0.044510543
1456.67,0.044534157
1457.63,0.044261655
1458.59,0.043749034
1459.56,0.043419224
1460.52,0.043483824
1461.49,0.043294392
1462.45,0.042425299
1463.42,0.041413586
1464.38,0.040881227
1465.34,0.040773444
1466.31,0.040580493
1467.27,0.040102804
1468.24,0.039667243
1469.2,0.03951512
1470.17,0.039405772
1471.13,0.039053469
1472.09,0.038529276
1473.06,0.038061589
1474.02,0.037635707
1474.99,0.037209229
1475.95,0.036796077
1476.92,0.036425341
1477.88,0.035996342
1478.84,0.035466052
1479.81,0.03482001
1480.77,0.034086326
1481.74,0.033481174
1482.7,0.033220388
1483.67,0.033031506
1484.63,0.032639898
1485.59,0.032031035
1486.56,0.031334467
1487.52,0.030665297
1488.49,0.030169139
1489.45,0.029976069
1490.41,0.029913349
1491.38,0.029444018
1492.34,0.028566766
1493.31,0.027935496
1494.27,0.027564902
1495.24,0.027150017
1496.2,0.026675938
1497.16,0.02612802
1498.13,0.025579352
1499.09,0.025131972
1500.06,0.02472777
1501.02,0.024307964
1501.99,0.023858297
1502.95,0.023378404
1503.91,0.022912195
1504.88,0.022460201
1505.84,0.022110028
1506.81,0.021789017
1507.77,0.021496556
1508.74,0.021115402
1509.7,0.020511933
1510.66,0.019818748
1511.63,0.01918367
1512.59,0.018665708
1513.56,0.018191288
1514.52,0.017686508
1515.48,0.017284567
1516.45,0.017119702
1517.41,0.017088164
1518.38,0.01687817
1519.34,0.016489106
1520.31,0.016099351
1521.27,0.015574515
1522.23,0.015213131
1523.2,0.0152097
1524.16,0.015251124
1525.13,0.015008203
1526.09,0.014540142
1527.06,0.014116325
1528.02,0.01384173
1528.98,0.013506574
1529.95,0.012945454
1530.91,0.012323093
1531.88,0.012015957
1532.84,0.011964403
1533.81,0.011912839
1534.77,0.01172523
1535.73,0.011401292
1536.7,0.010955926
1537.66,0.010494554
1538.63,0.010229398
1539.59,0.010160809
1540.55,0.010046571
1541.52,0.009795519
1542.48,0.00945276
1543.45,0.009003001
1544.41,0.008552401
1545.38,0.008253485
1546.34,0.008106508
1547.3,0.008096651
1548.27,0.008193766
1549.23,0.008398028
1550.2,0.008694506
1551.16,0.009022064
1552.13,0.009472852
1553.09,0.010077764
1554.05,0.010775833
1555.02,0.011705661
1555.98,0.012037114
1556.95,0.011183844
1557.91,0.009758982
1558.88,0.007899982
1559.84,0.006084091
1560.8,0.00483665
1561.77,0.004174595
1562.73,0.003929135
1563.7,0.003977515
1564.66,0.004149941
1565.62,0.004229583
1566.59,0.004247294
1567.55,0.00401639
1568.52,0.00344301
1569.48,0.003055411
1570.45,0.002994285
1571.41,0.002964238
1572.37,0.00302774
1573.34,0.003028907
1574.3,0.002654959
1575.27,0.002108321
1576.23,0.001826904
1577.2,0.001905393
1578.16,0.002140844
1579.12,0.002298196
1580.09,0.002377288
1581.05,0.0023779
1582.02,0.002299844
1582.98,0.002127166
1583.95,0.00176507
1584.91,0.001528565
1585.87,0.001528466
1586.84,0.001528365
1587.8,0.001227814
1588.77,0.000815971
1589.73,0.000688562
1590.69,0.000862144
1591.66,0.001115339
1592.62,0.001241928
1593.59,0.00122569
1594.55,0.001066277
1595.52,0.000779243
1596.48,0.00050767
1597.44,0.000379155
1598.41,0.000218497
1599.37,9.67E-06
