RamanShift,CaZn2
49.85,-6.86E-05
50.81,-2.75E-05
51.78,7.75E-06
52.74,3.77E-05
53.71,7.30E-05
54.67,0.000124841
55.64,0.000208309
56.6,0.000292823
57.56,0.000381016
58.53,0.000466509
59.49,0.000539198
60.46,0.000581733
61.42,0.000610889
62.38,0.000619932
63.35,0.000611958
64.31,0.000603686
65.28,0.000619524
66.24,0.000650209
67.21,0.000697049
68.17,0.000760521
69.13,0.000840982
70.1,0.000923874
71.06,0.001006511
72.03,0.001082776
72.99,0.001143934
73.96,0.001187261
74.92,0.00122529
75.88,0.001246578
76.85,0.0012541
77.81,0.001268559
78.78,0.001300326
79.74,0.001337081
80.71,0.001383152
81.67,0.001438217
82.63,0.001489513
83.6,0.001521275
84.56,0.001539443
85.53,0.001547175
86.49,0.001546712
87.45,0.00155654
88.42,0.001600285
89.38,0.001669064
90.35,0.001749906
91.31,0.001820731
92.28,0.001883032
93.24,0.00192342
94.2,0.001934838
95.17,0.001921944
96.13,0.001915589
97.1,0.001912023
98.06,0.001909104
99.03,0.001902546
99.99,0.001888338
100.95,0.001885509
101.92,0.001919921
102.88,0.001971599
103.85,0.002033782
104.81,0.002100813
105.78,0.00216358
106.74,0.002204649
107.7,0.002223724
108.67,0.002221815
109.63,0.00220024
110.6,0.002149766
111.56,0.00211809
112.52,0.002115908
113.49,0.002142867
114.45,0.002173043
115.42,0.002208689
116.38,0.002235051
117.35,0.002249194
118.31,0.002251398
119.27,0.002249105
120.24,0.002252743
121.2,0.002268168
122.17,0.002296298
123.13,0.002332457
124.1,0.002354563
125.06,0.002351184
126.02,0.002328877
126.99,0.002297395
127.95,0.002270376
128.92,0.002256795
129.88,0.002249553
130.85,0.002247451
131.81,0.00224679
132.77,0.002243981
133.74,0.002238938
134.7,0.002239155
135.67,0.002248913
136.63,0.002266726
137.59,0.002276292
138.56,0.002281873
139.52,0.002282756
140.49,0.002277332
141.45,0.002262104
142.42,0.002240747
143.38,0.002209033
144.34,0.002168678
145.31,0.002126087
146.27,0.00209227
147.24,0.002085948
148.2,0.002089507
149.17,0.002096309
150.13,0.0021041
151.09,0.002115838
152.06,0.002143074
153.02,0.002154649
153.99,0.002147764
154.95,0.002124551
155.92,0.002099058
156.88,0.00206508
157.84,0.002030422
158.81,0.001999449
159.77,0.001976076
160.74,0.001962246
161.7,0.001953156
162.66,0.001941385
163.63,0.00192356
164.59,0.00190045
165.56,0.001879874
166.52,0.001870992
167.49,0.001871809
168.45,0.001880878
169.41,0.00189724
170.38,0.001917074
171.34,0.001913684
172.31,0.001895828
173.27,0.001870917
174.24,0.00184786
175.2,0.001821483
176.16,0.001801281
177.13,0.001781608
178.09,0.001759152
179.06,0.001730105
180.02,0.001707314
180.99,0.001699028
181.95,0.001702217
182.91,0.001711554
183.88,0.001716198
184.84,0.001700207
185.81,0.001682781
186.77,0.001673961
187.74,0.00167866
188.7,0.001689736
189.66,0.001684592
190.63,0.001662953
191.59,0.001631528
192.56,0.001600087
193.52,0.001586293
194.48,0.001589559
195.45,0.001581666
196.41,0.001557958
197.38,0.001524868
198.34,0.001506588
199.31,0.001514025
200.27,0.001526801
201.23,0.001540232
202.2,0.001554445
203.16,0.00158111
204.13,0.001620114
205.09,0.001644833
206.06,0.001646856
207.02,0.001627991
207.98,0.001613219
208.95,0.001608663
209.91,0.001607059
210.88,0.001606716
211.84,0.001604097
212.81,0.001608138
213.77,0.001626237
214.73,0.001646504
215.7,0.001664959
216.66,0.001677175
217.63,0.001687438
218.59,0.001694061
219.55,0.001695662
220.52,0.001695835
221.48,0.001695748
222.45,0.001698519
223.41,0.001698889
224.38,0.001692626
225.34,0.001677902
226.3,0.001662095
227.27,0.001665514
228.23,0.001673267
229.2,0.001680343
230.16,0.001689556
231.13,0.001709648
232.09,0.001726668
233.05,0.001732089
234.02,0.00173363
234.98,0.00172785
235.95,0.001710839
236.91,0.00168378
237.88,0.001674863
238.84,0.001688303
239.8,0.001721366
240.77,0.001765494
241.73,0.001794267
242.7,0.001812584
243.66,0.001837578
244.62,0.001873704
245.59,0.001917038
246.55,0.001936815
247.52,0.001947385
248.48,0.001951812
249.45,0.001952802
250.41,0.001948334
251.37,0.00195598
252.34,0.001981364
253.3,0.002013929
254.27,0.002049545
255.23,0.002081752
256.2,0.002094424
257.16,0.002080625
258.12,0.002057391
259.09,0.002042159
260.05,0.00204872
261.02,0.002088874
261.98,0.002143297
262.95,0.002191735
263.91,0.002219656
264.87,0.002215389
265.84,0.002179455
266.8,0.002152516
267.77,0.00214366
268.73,0.00214422
269.69,0.002143691
270.66,0.002133296
271.62,0.002137419
272.59,0.002154514
273.55,0.00217358
274.52,0.00218278
275.48,0.002171631
276.44,0.002132793
277.41,0.002081257
278.37,0.002044387
279.34,0.002044323
280.3,0.002095981
281.27,0.002164902
282.23,0.002232234
283.19,0.002289598
284.16,0.002321056
285.12,0.002299311
286.09,0.002243043
287.05,0.00222584
288.02,0.002257169
288.98,0.002323433
289.94,0.002383699
290.91,0.002403903
291.87,0.002407528
292.84,0.002410075
293.8,0.002424707
294.76,0.002460678
295.73,0.002512776
296.69,0.002556113
297.66,0.002590772
298.62,0.002622119
299.59,0.002659515
300.55,0.002695895
301.51,0.002708153
302.48,0.00271703
303.44,0.002723426
304.41,0.002718114
305.37,0.002693611
306.34,0.00271284
307.3,0.002769008
308.26,0.002836395
309.23,0.002891165
310.19,0.002934113
311.16,0.002978692
312.12,0.003012431
313.09,0.003035465
314.05,0.00305353
315.01,0.003090209
315.98,0.003160843
316.94,0.003235614
317.91,0.00329475
318.87,0.003323904
319.83,0.003322786
320.8,0.003306422
321.76,0.003297319
322.73,0.003311249
323.69,0.003352133
324.66,0.003402452
325.62,0.003458168
326.58,0.003516863
327.55,0.003569522
328.51,0.003619745
329.48,0.003682329
330.44,0.003762468
331.41,0.003831299
332.37,0.003893745
333.33,0.003967364
334.3,0.004067316
335.26,0.004182766
336.23,0.004266491
337.19,0.004334193
338.16,0.00441211
339.12,0.004524892
340.08,0.004681446
341.05,0.004835152
342.01,0.004964639
342.98,0.005067152
343.94,0.005149022
344.91,0.005218859
345.87,0.005308807
346.83,0.005443552
347.8,0.005608077
348.76,0.005777873
349.73,0.005923087
350.69,0.006042978
351.65,0.006178204
352.62,0.006321862
353.58,0.006461847
354.55,0.006585315
355.51,0.00670933
356.48,0.006864066
357.44,0.007041929
358.4,0.007223973
359.37,0.007390974
360.33,0.007525628
361.3,0.007626576
362.26,0.007717182
363.23,0.007819229
364.19,0.00795372
365.15,0.008130518
366.12,0.008317993
367.08,0.00846611
368.05,0.008581228
369.01,0.00867952
369.98,0.008791162
370.94,0.00894083
371.9,0.009089804
372.87,0.009219386
373.83,0.009347783
374.8,0.00949796
375.76,0.0096791
376.72,0.009813111
377.69,0.009925618
378.65,0.01003674
379.62,0.01015202
380.58,0.010259386
381.55,0.010375816
382.51,0.010492479
383.47,0.010596525
384.44,0.010683262
385.4,0.010773306
386.37,0.010922413
387.33,0.011133815
388.3,0.011355219
389.26,0.011543869
390.22,0.011667665
391.19,0.011731448
392.15,0.011796686
393.12,0.011877904
394.08,0.011986403
395.05,0.012130202
396.01,0.012322595
396.97,0.012469316
397.94,0.01252512
398.9,0.012542278
399.87,0.012564935
400.83,0.012622162
401.79,0.012704156
402.76,0.012802744
403.72,0.012908402
404.69,0.013006021
405.65,0.01308219
406.62,0.013160804
407.58,0.013311106
408.54,0.013476549
409.51,0.013587181
410.47,0.01360168
411.44,0.013516312
412.4,0.013424204
413.37,0.013384775
414.33,0.013395872
415.29,0.013441815
416.26,0.013495607
417.22,0.013511944
418.19,0.013513641
419.15,0.013542691
420.12,0.013587072
421.08,0.013617901
422.04,0.01360529
423.01,0.013556802
423.97,0.013497849
424.94,0.013423441
425.9,0.013340269
426.86,0.013281217
427.83,0.01330847
428.79,0.013379559
429.76,0.013387458
430.72,0.013317128
431.69,0.013194004
432.65,0.013079213
433.61,0.013008538
434.58,0.012984709
435.54,0.012997559
436.51,0.013014584
437.47,0.012999397
438.44,0.012930578
439.4,0.012840806
440.36,0.012758272
441.33,0.012681397
442.29,0.012603484
443.26,0.012521203
444.22,0.012474305
445.19,0.01246381
446.15,0.012473062
447.11,0.012486248
448.08,0.012501696
449.04,0.012510523
450.01,0.01246596
450.97,0.012391656
451.93,0.01232501
452.9,0.012278893
453.86,0.012240297
454.83,0.012178649
455.79,0.012080432
456.76,0.011948167
457.72,0.011808261
458.68,0.011694887
459.65,0.011661591
460.61,0.011699946
461.58,0.011764246
462.54,0.011809171
463.51,0.011805128
464.47,0.011757545
465.43,0.011741881
466.4,0.011752219
467.36,0.011736099
468.33,0.011667788
469.29,0.011537526
470.26,0.011386962
471.22,0.011298735
472.18,0.011269264
473.15,0.011288286
474.11,0.011322456
475.08,0.01132809
476.04,0.011253223
477.01,0.011164675
477.97,0.011108761
478.93,0.011097225
479.9,0.011115022
480.86,0.011130191
481.83,0.011143316
482.79,0.011160624
483.75,0.011173325
484.72,0.011154293
485.68,0.01107988
486.65,0.01093642
487.61,0.010812468
488.58,0.010734045
489.54,0.010661739
490.5,0.01054953
491.47,0.010367153
492.43,0.010199735
493.4,0.010117918
494.36,0.010100854
495.33,0.010104919
496.29,0.010085115
497.25,0.010010791
498.22,0.009907835
499.18,0.009806319
500.15,0.009723436
501.11,0.009663578
502.08,0.009622668
503.04,0.009573979
504,0.009508129
504.97,0.009439619
505.93,0.009370439
506.9,0.009305829
507.86,0.009228444
508.82,0.009123791
509.79,0.009026004
510.75,0.008944542
511.72,0.008877455
512.68,0.00881957
513.65,0.008771325
514.61,0.008710203
515.57,0.008606579
516.54,0.008472721
517.5,0.008337901
518.47,0.008237453
519.43,0.008161208
520.4,0.008019515
521.36,0.007816507
522.32,0.007599841
523.29,0.007414999
524.25,0.007282193
525.22,0.007179244
526.18,0.007032329
527.15,0.006861793
528.11,0.006692784
529.07,0.006569012
530.04,0.006524318
531,0.006538449
531.97,0.006542363
532.93,0.006496951
533.89,0.006383817
534.86,0.006207782
535.82,0.005999439
536.79,0.005787572
537.75,0.005571873
538.72,0.005347353
539.68,0.005113688
540.64,0.004897355
541.61,0.004746097
542.57,0.004644353
543.54,0.00455011
544.5,0.00444201
545.47,0.004309399
546.43,0.004143982
547.39,0.003956311
548.36,0.003748962
549.32,0.003497489
550.29,0.003193561
551.25,0.002855709
552.22,0.002540683
553.18,0.002343759
554.14,0.002268494
555.11,0.002247474
556.07,0.00219349
557.04,0.002056965
558,0.00187306
558.96,0.001757184
559.93,0.001649044
560.89,0.001476751
561.86,0.001237082
562.82,0.000976875
563.79,0.000768404
564.75,0.000606493
565.71,0.000466245
566.68,0.000350577
567.64,0.000268161
568.61,0.000230417
569.57,0.000229254
570.54,0.00019125
571.5,0.000110575
572.46,2.95E-05
573.43,-6.31E-06
574.39,1.48E-05
575.36,3.60E-05
576.32,7.74E-05
577.29,0.000130427
578.25,0.000160685
579.21,0.000142007
580.18,9.43E-05
581.14,0.000113053
582.11,0.000224832
583.07,0.000366251
584.03,0.000499519
585,0.000609928
585.96,0.000717912
586.93,0.000835129
587.89,0.000914616
588.86,0.000997358
589.82,0.001133665
590.78,0.001347539
591.75,0.001597905
592.71,0.001730371
593.68,0.001797804
594.64,0.001880448
595.61,0.002011304
596.57,0.002187689
597.53,0.002406871
598.5,0.002654064
599.46,0.00285397
600.43,0.00300026
601.39,0.003125912
602.36,0.003276365
603.32,0.00346697
604.28,0.003704077
605.25,0.003972712
606.21,0.004236278
607.18,0.004473309
608.14,0.004680469
609.1,0.004866902
610.07,0.00505719
611.03,0.005306952
612,0.005585643
612.96,0.005837415
613.93,0.006031087
614.89,0.006231673
615.85,0.006520526
616.82,0.006816836
617.78,0.007085971
618.75,0.00733107
619.71,0.007564407
620.68,0.007792407
621.64,0.007970554
622.6,0.008123995
623.57,0.008284446
624.53,0.008473974
625.5,0.008712195
626.46,0.009018209
627.43,0.00936397
628.39,0.009669144
629.35,0.009895139
630.32,0.01005769
631.28,0.010210988
632.25,0.010419916
633.21,0.010710418
634.18,0.011021608
635.14,0.011314267
636.1,0.011555855
637.07,0.011739712
638.03,0.011897864
639,0.012109154
639.96,0.012393236
640.92,0.012691486
641.89,0.012967917
642.85,0.013208803
643.82,0.013424252
644.78,0.013557323
645.75,0.013641258
646.71,0.013768411
647.67,0.013946002
648.64,0.014181176
649.6,0.014487224
650.57,0.014868331
651.53,0.015180008
652.5,0.015361719
653.46,0.015435863
654.42,0.015479774
655.39,0.015595072
656.35,0.01585969
657.32,0.016217184
658.28,0.016565454
659.25,0.016853784
660.21,0.017053981
661.17,0.017182922
662.14,0.017309066
663.1,0.017521205
664.07,0.01778937
665.03,0.018061557
665.99,0.018307026
666.96,0.018508567
667.92,0.018700045
668.89,0.018881975
669.85,0.019043279
670.82,0.019187913
671.78,0.0193117
672.74,0.019414819
673.71,0.019490439
674.67,0.019551864
675.64,0.019613691
676.6,0.019696474
677.57,0.01980093
678.53,0.019915956
679.49,0.019995828
680.46,0.019969633
681.42,0.019939361
682.39,0.019984005
683.35,0.02005338
684.32,0.020051647
685.28,0.019920488
686.24,0.019759988
687.21,0.019710641
688.17,0.019721877
689.14,0.019711746
690.1,0.019650483
691.06,0.019552707
692.03,0.019440243
692.99,0.019279731
693.96,0.019100612
694.92,0.018953298
695.89,0.01886409
696.85,0.01882543
697.81,0.01882686
698.78,0.018828457
699.74,0.018800245
700.71,0.018705745
701.67,0.018547769
702.64,0.018356108
703.6,0.018233817
704.56,0.018304012
705.53,0.018493588
706.49,0.018694634
707.46,0.018859222
708.42,0.019005324
709.39,0.019167067
710.35,0.019351497
711.31,0.019487577
712.28,0.019567914
713.24,0.019651841
714.21,0.019789167
715.17,0.01999081
716.13,0.020181702
717.1,0.020324075
718.06,0.020477947
719.03,0.020636326
719.99,0.020810106
720.96,0.021015228
721.92,0.021285715
722.88,0.021595347
723.85,0.02189469
724.81,0.022144606
725.78,0.022341603
726.74,0.022477068
727.71,0.022586117
728.67,0.022722212
729.63,0.02291296
730.6,0.023139525
731.56,0.023436473
732.53,0.023773611
733.49,0.024072362
734.46,0.024262778
735.42,0.02443377
736.38,0.024660155
737.35,0.024938622
738.31,0.02527267
739.28,0.02565933
740.24,0.026078387
741.2,0.026474942
742.17,0.026805651
743.13,0.027081348
744.1,0.027314447
745.06,0.027539822
746.03,0.027794118
746.99,0.028108668
747.95,0.028452084
748.92,0.028740825
749.88,0.028985702
750.85,0.029215631
751.81,0.02940941
752.78,0.02953556
753.74,0.029657438
754.7,0.029876777
755.67,0.030072768
756.63,0.030203836
757.6,0.03029492
758.56,0.03036943
759.53,0.030415888
760.49,0.030363816
761.45,0.030274586
762.42,0.030189448
763.38,0.030091156
764.35,0.029959913
765.31,0.029761768
766.28,0.029468337
767.24,0.029094893
768.2,0.028691156
769.17,0.028249073
770.13,0.027759394
771.1,0.027226813
772.06,0.026654566
773.02,0.026055366
773.99,0.025454503
774.95,0.024830374
775.92,0.024162567
776.88,0.023450256
777.85,0.022685436
778.81,0.021854653
779.77,0.020915721
780.74,0.019969795
781.7,0.019079844
782.67,0.018199979
783.63,0.01728313
784.6,0.016342294
785.56,0.015402552
786.52,0.014515294
787.49,0.013719349
788.45,0.012997759
789.42,0.012295433
790.38,0.011556451
791.35,0.010793755
792.31,0.010080238
793.27,0.009407611
794.24,0.008741581
795.2,0.008060451
796.17,0.007351262
797.13,0.006622499
798.09,0.005878468
799.06,0.005258317
800.02,0.004814905
800.99,0.004483572
801.95,0.004199302
802.92,0.003918521
803.88,0.003636888
804.84,0.003367564
805.81,0.003097391
806.77,0.002861641
807.74,0.002669242
808.7,0.002524871
809.67,0.002415405
810.63,0.002305639
811.59,0.00217335
812.56,0.002076164
813.52,0.002049918
814.49,0.002085929
815.45,0.002144397
816.42,0.002202988
817.38,0.002266258
818.34,0.002374539
819.31,0.002550434
820.27,0.002794317
821.24,0.003079403
822.2,0.003360838
823.16,0.003584375
824.13,0.003754267
825.09,0.003870313
826.06,0.003973059
827.02,0.004076108
827.99,0.004179428
828.95,0.004305828
829.91,0.004482762
830.88,0.004769839
831.84,0.005153851
832.81,0.005483959
833.77,0.00574618
834.74,0.005972415
835.7,0.006199195
836.66,0.006435871
837.63,0.006677875
838.59,0.006883474
839.56,0.007052711
840.52,0.007203762
841.49,0.007327474
842.45,0.007418908
843.41,0.007473283
844.38,0.007546548
845.34,0.007661953
846.31,0.007782357
847.27,0.007870276
848.23,0.007911525
849.2,0.007929406
850.16,0.008003717
851.13,0.008205389
852.09,0.008393429
853.06,0.008482826
854.02,0.008506203
854.98,0.008515407
855.95,0.008524636
856.91,0.008524332
857.88,0.008490732
858.84,0.008499844
859.81,0.008594835
860.77,0.008718692
861.73,0.008780685
862.7,0.008732687
863.66,0.008622137
864.63,0.008597735
865.59,0.008712694
866.56,0.00883284
867.52,0.008827754
868.48,0.008682597
869.45,0.008488713
870.41,0.008313511
871.38,0.008142761
872.34,0.008010297
873.3,0.007960123
874.27,0.007929281
875.23,0.007869047
876.2,0.007754909
877.16,0.007596398
878.13,0.007388459
879.09,0.007150487
880.05,0.006936393
881.02,0.006741357
881.98,0.006550689
882.95,0.006344675
883.91,0.006147958
884.88,0.006010008
885.84,0.005866721
886.8,0.005688317
887.77,0.005524282
888.73,0.005394606
889.7,0.00527952
890.66,0.005159092
891.63,0.005003348
892.59,0.004867173
893.55,0.004815727
894.52,0.004829265
895.48,0.004877977
896.45,0.004946897
897.41,0.005041163
898.37,0.005140711
899.34,0.005220297
900.3,0.005300108
901.27,0.00539021
902.23,0.00551603
903.2,0.005687861
904.16,0.005890538
905.12,0.006058177
906.09,0.006236468
907.05,0.006440685
908.02,0.006650522
908.98,0.006886482
909.95,0.007204982
910.91,0.007601233
911.87,0.00801905
912.84,0.008417394
913.8,0.008868243
914.77,0.009366678
915.73,0.009887029
916.7,0.010408812
917.66,0.010916274
918.62,0.011409541
919.59,0.011836717
920.55,0.012192125
921.52,0.012600528
922.48,0.013129729
923.45,0.013749043
924.41,0.014401202
925.37,0.01503933
926.34,0.015668711
927.3,0.016168481
928.27,0.016580355
929.23,0.017050975
930.19,0.017633325
931.16,0.018264774
932.12,0.01879205
933.09,0.01915166
934.05,0.019464366
935.02,0.019735591
935.98,0.020081585
936.94,0.020582484
937.91,0.021191183
938.87,0.021785239
939.84,0.022269003
940.8,0.022668209
941.77,0.023079377
942.73,0.023485928
943.69,0.023877371
944.66,0.024264595
945.62,0.024674028
946.59,0.025122333
947.55,0.025619986
948.52,0.02607591
949.48,0.026386826
950.44,0.026633549
951.41,0.026951534
952.37,0.027351297
953.34,0.027752254
954.3,0.028121276
955.26,0.028442161
956.23,0.028573274
957.19,0.028617053
958.16,0.028721238
959.12,0.028951181
960.09,0.029247689
961.05,0.029489686
962.01,0.029600399
962.98,0.029645598
963.94,0.02969055
964.91,0.029774402
965.87,0.029896743
966.84,0.030030698
967.8,0.03014238
968.76,0.030182286
969.73,0.030233642
970.69,0.030418015
971.66,0.030630858
972.62,0.03078818
973.59,0.030868043
974.55,0.030858415
975.51,0.03077043
976.48,0.030682485
977.44,0.030677945
978.41,0.030724086
979.37,0.030758742
980.33,0.030731536
981.3,0.030648152
982.26,0.030569837
983.23,0.030604482
984.19,0.03062184
985.16,0.03045835
986.12,0.030316762
987.08,0.030231476
988.05,0.030151853
989.01,0.030026187
989.98,0.029900459
990.94,0.029791122
991.91,0.029675995
992.87,0.029525955
993.83,0.029364029
994.8,0.029184701
995.76,0.028918565
996.73,0.028433781
997.69,0.02770594
998.66,0.027034055
999.62,0.026665722
1000.58,0.026365679
1001.55,0.026088166
1002.51,0.025792342
1003.48,0.02540912
1004.44,0.024879666
1005.41,0.024290999
1006.37,0.023741346
1007.33,0.023196128
1008.3,0.022626398
1009.26,0.022043397
1010.23,0.021464991
1011.19,0.020914165
1012.15,0.020402952
1013.12,0.019890594
1014.08,0.019347474
1015.05,0.018903022
1016.01,0.018627957
1016.98,0.018328796
1017.94,0.017828185
1018.9,0.017137391
1019.87,0.016474552
1020.83,0.015963886
1021.8,0.015588393
1022.76,0.015241494
1023.73,0.01490568
1024.69,0.01455707
1025.65,0.014171873
1026.62,0.013750013
1027.58,0.013344971
1028.55,0.012992816
1029.51,0.012645676
1030.48,0.012243811
1031.44,0.011786965
1032.4,0.011335018
1033.37,0.010948171
1034.33,0.010680665
1035.3,0.010526987
1036.26,0.010330687
1037.23,0.01003728
1038.19,0.009731062
1039.15,0.009436272
1040.12,0.009146759
1041.08,0.008838351
1042.05,0.008492736
1043.01,0.008115899
1043.97,0.007792964
1044.94,0.007554632
1045.9,0.007388932
1046.87,0.007265566
1047.83,0.007074638
1048.8,0.006766905
1049.76,0.006366443
1050.72,0.006014136
1051.69,0.005753169
1052.65,0.00551623
1053.62,0.005247881
1054.58,0.004978944
1055.55,0.004777247
1056.51,0.004636934
1057.47,0.004502471
1058.44,0.004355248
1059.4,0.004189119
1060.37,0.003960438
1061.33,0.00367532
1062.3,0.003414373
1063.26,0.003221425
1064.22,0.003084184
1065.19,0.00294655
1066.15,0.002789904
1067.12,0.002632819
1068.08,0.00248171
1069.04,0.00231142
1070.01,0.002128096
1070.97,0.001975876
1071.94,0.001879886
1072.9,0.001808972
1073.87,0.001655765
1074.83,0.001363298
1075.79,0.001063839
1076.76,0.000871249
1077.72,0.000767069
1078.69,0.000687939
1079.65,0.000602373
1080.62,0.000510151
1081.58,0.000443291
1082.54,0.000459162
1083.51,0.000519647
1084.47,0.000478127
1085.44,0.000430015
1086.4,0.000426727
1087.37,0.000423327
1088.33,0.000323737
1089.29,0.00014681
1090.26,2.73E-05
1091.22,4.19E-06
1092.19,4.54E-05
1093.15,0.000177234
1094.11,0.000354571
1095.08,0.000499855
1096.04,0.000541936
1097.01,0.000506199
1097.97,0.000509431
1098.94,0.000603549
1099.9,0.000763036
1100.86,0.000961954
1101.83,0.00114166
1102.79,0.001282691
1103.76,0.001378192
1104.72,0.001408577
1105.69,0.001379992
1106.65,0.001430111
1107.61,0.001644438
1108.58,0.001924866
1109.54,0.002192838
1110.51,0.002434977
1111.47,0.002638166
1112.44,0.002808715
1113.4,0.002940076
1114.36,0.003065098
1115.33,0.003269782
1116.29,0.003567809
1117.26,0.003952689
1118.22,0.004391639
1119.18,0.004811581
1120.15,0.005159138
1121.11,0.005454168
1122.08,0.005783159
1123.04,0.006152987
1124.01,0.00655702
1124.97,0.006968633
1125.93,0.007354333
1126.9,0.007673778
1127.86,0.007953582
1128.83,0.008281079
1129.79,0.008723696
1130.76,0.009173967
1131.72,0.009449814
1132.68,0.009834308
1133.65,0.010341373
1134.61,0.010815629
1135.58,0.011209633
1136.54,0.011590847
1137.51,0.01202719
1138.47,0.012532441
1139.43,0.013059243
1140.4,0.013559852
1141.36,0.014054683
1142.33,0.014605271
1143.29,0.015225278
1144.25,0.015832904
1145.22,0.016311703
1146.18,0.016681811
1147.15,0.017148772
1148.11,0.017795327
1149.08,0.018340177
1150.04,0.018824047
1151,0.019295129
1151.97,0.019746627
1152.93,0.020212724
1153.9,0.020749035
1154.86,0.021369452
1155.83,0.021977463
1156.79,0.022503295
1157.75,0.022981582
1158.72,0.023426266
1159.68,0.023843822
1160.65,0.024297191
1161.61,0.02485606
1162.58,0.025506923
1163.54,0.026082085
1164.5,0.026455473
1165.47,0.026815816
1166.43,0.027232754
1167.4,0.027650756
1168.36,0.02804125
1169.32,0.02842548
1170.29,0.028845929
1171.25,0.02929517
1172.22,0.029752546
1173.18,0.03022478
1174.15,0.030719435
1175.11,0.031151093
1176.07,0.031484376
1177.04,0.031768913
1178,0.032110535
1178.97,0.032552637
1179.93,0.033009562
1180.9,0.033424855
1181.86,0.033769487
1182.82,0.033929072
1183.79,0.034010535
1184.75,0.034192048
1185.72,0.034488777
1186.68,0.034864631
1187.65,0.035263048
1188.61,0.03564037
1189.57,0.035932106
1190.54,0.036095107
1191.5,0.03624365
1192.47,0.036450405
1193.43,0.036664571
1194.4,0.036821457
1195.36,0.036963877
1196.32,0.037215272
1197.29,0.037554338
1198.25,0.037719543
1199.22,0.037623726
1200.18,0.037680087
1201.14,0.037984105
1202.11,0.038310892
1203.07,0.038462806
1204.04,0.038483813
1205,0.038533707
1205.97,0.03874495
1206.93,0.039029646
1207.89,0.039153407
1208.86,0.039094052
1209.82,0.039159268
1210.79,0.039393984
1211.75,0.039673035
1212.72,0.039930822
1213.68,0.040100148
1214.64,0.040092432
1215.61,0.039914875
1216.57,0.039758745
1217.54,0.039795264
1218.5,0.039950141
1219.47,0.040090763
1220.43,0.040194083
1221.39,0.040282663
1222.36,0.040371707
1223.32,0.040460511
1224.29,0.040504921
1225.25,0.040564091
1226.21,0.040645677
1227.18,0.040630307
1228.14,0.040599644
1229.11,0.040614066
1230.07,0.040673231
1231.04,0.040755354
1232,0.040867321
1232.96,0.040911652
1233.93,0.040813089
1234.89,0.040683712
1235.86,0.040728139
1236.82,0.040878123
1237.79,0.040937842
1238.75,0.040853266
1239.71,0.040738108
1240.68,0.040691345
1241.64,0.040697282
1242.61,0.040657857
1243.57,0.040656021
1244.54,0.040707758
1245.5,0.040751704
1246.46,0.040826155
1247.43,0.040901037
1248.39,0.040937376
1249.36,0.040912691
1250.32,0.040857011
1251.28,0.040816433
1252.25,0.040852838
1253.21,0.040935217
1254.18,0.040963979
1255.14,0.040930865
1256.11,0.040905528
1257.07,0.040926152
1258.03,0.040970025
1259,0.040975411
1259.96,0.04094956
1260.93,0.040931538
1261.89,0.040905383
1262.86,0.040996016
1263.82,0.0412731
1264.78,0.041542958
1265.75,0.041696572
1266.71,0.041756533
1267.68,0.041809088
1268.64,0.041908231
1269.61,0.04204698
1270.57,0.042162086
1271.53,0.042222472
1272.5,0.042283264
1273.46,0.042359466
1274.43,0.042412516
1275.39,0.04247312
1276.35,0.042581051
1277.32,0.042752578
1278.28,0.042916124
1279.25,0.042914335
1280.21,0.042714365
1281.18,0.042609305
1282.14,0.042812716
1283.1,0.043159259
1284.07,0.043570305
1285.03,0.043957879
1286,0.044179421
1286.96,0.044185918
1287.93,0.044105032
1288.89,0.044231034
1289.85,0.044580874
1290.82,0.044811766
1291.78,0.044842579
1292.75,0.044961882
1293.71,0.045273433
1294.68,0.045634061
1295.64,0.045890491
1296.6,0.046018667
1297.57,0.046131306
1298.53,0.046324291
1299.5,0.046566363
1300.46,0.046784226
1301.42,0.046929704
1302.39,0.047019158
1303.35,0.047067835
1304.32,0.047108823
1305.28,0.047198105
1306.25,0.047409696
1307.21,0.047653745
1308.17,0.04774368
1309.14,0.047736217
1310.1,0.047834333
1311.07,0.047990086
1312.03,0.048211013
1313,0.048555334
1313.96,0.048924394
1314.92,0.049236831
1315.89,0.049492644
1316.85,0.049773251
1317.82,0.050087435
1318.78,0.050294996
1319.75,0.05032205
1320.71,0.050455852
1321.67,0.050804336
1322.64,0.051087632
1323.6,0.051230672
1324.57,0.051324548
1325.53,0.051368597
1326.5,0.051396342
1327.46,0.051539925
1328.42,0.051882875
1329.39,0.052243456
1330.35,0.052421219
1331.32,0.052516419
1332.28,0.052669627
1333.24,0.052931492
1334.21,0.053235967
1335.17,0.053507073
1336.14,0.053687039
1337.1,0.053791462
1338.07,0.053795873
1339.03,0.05379138
1339.99,0.053937954
1340.96,0.054202852
1341.92,0.054417245
1342.89,0.05452294
1343.85,0.054510296
1344.82,0.054464252
1345.78,0.054518935
1346.74,0.054725886
1347.71,0.055026505
1348.67,0.055284984
1349.64,0.055484818
1350.6,0.055633752
1351.57,0.055774685
1352.53,0.055974936
1353.49,0.056167061
1354.46,0.056300141
1355.42,0.056322273
1356.39,0.056276396
1357.35,0.056255685
1358.31,0.056294614
1359.28,0.056385343
1360.24,0.056527091
1361.21,0.056720928
1362.17,0.056948908
1363.14,0.057186293
1364.1,0.057449365
1365.06,0.057712847
1366.03,0.057873856
1366.99,0.057819079
1367.96,0.057617894
1368.92,0.057614442
1369.89,0.057896676
1370.85,0.058118308
1371.81,0.058158467
1372.78,0.058181583
1373.74,0.058325848
1374.71,0.058487975
1375.67,0.058528307
1376.64,0.058438408
1377.6,0.058391511
1378.56,0.058527439
1379.53,0.058751275
1380.49,0.058905096
1381.46,0.058963435
1382.42,0.058951321
1383.38,0.058816489
1384.35,0.058673037
1385.31,0.058590188
1386.28,0.058577841
1387.24,0.058635246
1388.21,0.058719548
1389.17,0.05881226
1390.13,0.058878706
1391.1,0.058901378
1392.06,0.058844233
1393.03,0.058813807
1393.99,0.058950878
1394.96,0.059177153
1395.92,0.059252605
1396.88,0.059106317
1397.85,0.058889115
1398.81,0.058768735
1399.78,0.058746386
1400.74,0.05872345
1401.71,0.058656298
1402.67,0.058454666
1403.63,0.058083028
1404.6,0.057818162
1405.56,0.057874487
1406.53,0.058128096
1407.49,0.058292194
1408.45,0.05825909
1409.42,0.058136529
1410.38,0.058049154
1411.35,0.057970996
1412.31,0.057856152
1413.28,0.057678404
1414.24,0.057427652
1415.2,0.057059111
1416.17,0.056834657
1417.13,0.056889805
1418.1,0.057053864
1419.06,0.057127284
1420.03,0.057092209
1420.99,0.057002275
1421.95,0.056939269
1422.92,0.056794683
1423.88,0.056403594
1424.85,0.05592107
1425.81,0.055692457
1426.78,0.055682807
1427.74,0.055681771
1428.7,0.05561676
1429.67,0.055460302
1430.63,0.055257454
1431.6,0.055100245
1432.56,0.054887393
1433.52,0.054527064
1434.49,0.054221585
1435.45,0.05408987
1436.42,0.053949054
1437.38,0.053835155
1438.35,0.053749067
1439.31,0.053570018
1440.27,0.053298263
1441.24,0.05304467
1442.2,0.052901434
1443.17,0.052860016
1444.13,0.052799696
1445.1,0.052646585
1446.06,0.052381433
1447.02,0.052050557
1447.99,0.051756644
1448.95,0.051489702
1449.92,0.051213279
1450.88,0.050879922
1451.85,0.050536944
1452.81,0.050323805
1453.77,0.050260039
1454.74,0.050158817
1455.7,0.049841567
1456.67,0.049364367
1457.63,0.049008164
1458.59,0.048886153
1459.56,0.048717184
1460.52,0.048472174
1461.49,0.048189325
1462.45,0.047830106
1463.42,0.047442214
1464.38,0.047091032
1465.34,0.046814928
1466.31,0.046547889
1467.27,0.046232807
1468.24,0.04593631
1469.2,0.045724327
1470.17,0.045483738
1471.13,0.045042684
1472.09,0.044477092
1473.06,0.044015529
1474.02,0.043686252
1474.99,0.043337563
1475.95,0.042797008
1476.92,0.042207762
1477.88,0.041818226
1478.84,0.041571487
1479.81,0.04119038
1480.77,0.04062603
1481.74,0.040070515
1482.7,0.039590575
1483.67,0.039167712
1484.63,0.038743801
1485.59,0.038290298
1486.56,0.03777816
1487.52,0.037226423
1488.49,0.036683382
1489.45,0.036148973
1490.41,0.035584465
1491.38,0.035028839
1492.34,0.034627066
1493.31,0.034185961
1494.27,0.033471957
1495.24,0.032786028
1496.2,0.032302927
1497.16,0.031838518
1498.13,0.03125643
1499.09,0.030653603
1500.06,0.030157236
1501.02,0.029786795
1501.99,0.029396291
1502.95,0.028877685
1503.91,0.028279793
1504.88,0.027710395
1505.84,0.027267474
1506.81,0.026764783
1507.77,0.026074498
1508.74,0.025461623
1509.7,0.025054482
1510.66,0.024685929
1511.63,0.024247793
1512.59,0.023749524
1513.56,0.02327024
1514.52,0.02279988
1515.48,0.02230899
1516.45,0.021777507
1517.41,0.021235271
1518.38,0.020771445
1519.34,0.020435812
1520.31,0.020040022
1521.27,0.019464383
1522.23,0.018977345
1523.2,0.018748611
1524.16,0.01858931
1525.13,0.018309792
1526.09,0.017930001
1527.06,0.017459401
1528.02,0.01692807
1528.98,0.016485861
1529.95,0.016283526
1530.91,0.016201186
1531.88,0.015958052
1532.84,0.015613932
1533.81,0.015289362
1534.77,0.014954117
1535.73,0.014568001
1536.7,0.014120624
1537.66,0.013672442
1538.63,0.013304319
1539.59,0.013016425
1540.55,0.012697669
1541.52,0.012317595
1542.48,0.011936953
1543.45,0.011616323
1544.41,0.0113258
1545.38,0.01095326
1546.34,0.010600625
1547.3,0.010440703
1548.27,0.010474077
1549.23,0.010476913
1550.2,0.010234784
1551.16,0.009951425
1552.13,0.010025312
1553.09,0.010426777
1554.05,0.010880225
1555.02,0.011457314
1555.98,0.011645561
1556.95,0.011094899
1557.91,0.010214492
1558.88,0.009198833
1559.84,0.00818154
1560.8,0.007296447
1561.77,0.006595324
1562.73,0.006130463
1563.7,0.005933209
1564.66,0.00581843
1565.62,0.005568967
1566.59,0.005215411
1567.55,0.005037547
1568.52,0.005077052
1569.48,0.00495065
1570.45,0.004408369
1571.41,0.003906888
1572.37,0.003623082
1573.34,0.003484478
1574.3,0.003491704
1575.27,0.003561386
1576.23,0.003516475
1577.2,0.003283241
1578.16,0.003007926
1579.12,0.002784486
1580.09,0.002591942
1581.05,0.002409714
1582.02,0.002206033
1582.98,0.002044178
1583.95,0.001997513
1584.91,0.001887809
1585.87,0.001598932
1586.84,0.001309417
1587.8,0.00111448
1588.77,0.00097184
1589.73,0.000818559
1590.69,0.000686169
1591.66,0.000616878
1592.62,0.000632362
1593.59,0.000637102
1594.55,0.000472293
1595.52,0.000147787
1596.48,1.42E-05
1597.44,0.000231273
1598.41,0.000310198
1599.37,9.12E-05
