RamanShift,NBS3
49.85,-0.000158567
50.81,-0.000143333
51.78,-0.000131472
52.74,-0.000122534
53.71,-0.000112664
54.67,-9.75901E-05
55.64,-7.19589E-05
56.6,-4.57451E-05
57.56,-1.90687E-05
58.53,5.99748E-06
59.49,2.67096E-05
60.46,3.72071E-05
61.42,4.24808E-05
62.38,3.96626E-05
63.35,2.96963E-05
64.31,1.87826E-05
65.28,1.58058E-05
66.24,1.79485E-05
67.21,2.59944E-05
68.17,4.053E-05
69.13,6.21124E-05
70.1,8.49928E-05
71.06,0.000107917
72.03,0.00012873
72.99,0.000144814
73.96,0.000156581
74.92,0.00016721
75.88,0.00017247
76.85,0.000172607
77.81,0.000173424
78.78,0.000175518
79.74,0.000179501
80.71,0.000187827
81.67,0.000201098
82.63,0.000213929
83.6,0.000219378
84.56,0.00021959
85.53,0.000216135
86.49,0.000210743
87.45,0.000210943
88.42,0.000223258
89.38,0.000243984
90.35,0.000268891
91.31,0.000291481
92.28,0.0003136
93.24,0.000326896
94.2,0.000328805
95.17,0.00032129
96.13,0.000317064
97.1,0.000312939
98.06,0.000309444
99.03,0.000305465
99.99,0.000299709
100.95,0.000296111
101.92,0.000302497
102.88,0.000314571
103.85,0.000330991
104.81,0.000351146
105.78,0.000372738
106.74,0.000389572
107.7,0.00040094
108.67,0.000405498
109.63,0.00040141
110.6,0.000384591
111.56,0.00037397
112.52,0.00037312
113.49,0.000381913
114.45,0.000392423
115.42,0.000403501
116.38,0.000411476
117.35,0.000416411
118.31,0.000419099
119.27,0.000420393
120.24,0.000424521
121.2,0.000434865
122.17,0.000451623
123.13,0.000472494
124.1,0.000486061
125.06,0.000487057
126.02,0.000478942
126.99,0.000466564
127.95,0.000457669
128.92,0.000457006
129.88,0.000457374
130.85,0.000456012
131.81,0.000452634
132.77,0.000450653
133.74,0.000453435
134.7,0.000458748
135.67,0.000466798
136.63,0.000476787
137.59,0.000482122
138.56,0.000484065
139.52,0.000484717
140.49,0.000484498
141.45,0.000482791
142.42,0.000479776
143.38,0.00047188
144.34,0.000458996
145.31,0.000443384
146.27,0.000429291
147.24,0.000425832
148.2,0.000428243
149.17,0.000433017
150.13,0.000438426
151.09,0.000444801
152.06,0.000455059
153.02,0.000459665
153.99,0.000458387
154.95,0.00045234
155.92,0.000445557
156.88,0.00043494
157.84,0.000422434
158.81,0.000409485
159.77,0.000397624
160.74,0.000389941
161.7,0.0003871
162.66,0.000383376
163.63,0.000375565
164.59,0.000362399
165.56,0.00034894
166.52,0.000343642
167.49,0.000345858
168.45,0.000352695
169.41,0.000359772
170.38,0.000359583
171.34,0.000350372
172.31,0.000336619
173.27,0.000322362
174.24,0.000311894
175.2,0.000308203
176.16,0.000306306
177.13,0.000301555
178.09,0.000291006
179.06,0.000275079
180.02,0.000262043
180.99,0.00025546
181.95,0.000252184
182.91,0.000248448
183.88,0.000239416
184.84,0.00022305
185.81,0.000208843
186.77,0.000200653
187.74,0.000199626
188.7,0.000201847
189.66,0.000195662
190.63,0.000180667
191.59,0.000160414
192.56,0.000139608
193.52,0.000126534
194.48,0.000124659
195.45,0.000121299
196.41,0.000111856
197.38,9.49298E-05
198.34,7.94072E-05
199.31,7.53079E-05
200.27,7.79893E-05
201.23,8.39413E-05
202.2,8.88878E-05
203.16,8.88644E-05
204.13,8.50743E-05
205.09,8.23324E-05
206.06,8.26761E-05
207.02,8.57315E-05
207.98,8.56374E-05
208.95,8.20894E-05
209.91,7.9177E-05
210.88,7.69076E-05
211.84,7.57742E-05
212.81,7.41394E-05
213.77,7.31924E-05
214.73,7.22249E-05
215.7,7.17141E-05
216.66,7.16814E-05
217.63,7.13911E-05
218.59,6.54225E-05
219.55,5.63829E-05
220.52,4.74529E-05
221.48,4.31869E-05
222.45,4.3923E-05
223.41,4.28856E-05
224.38,3.66776E-05
225.34,2.54693E-05
226.3,1.09767E-05
227.27,4.74297E-07
228.23,-2.49549E-06
229.2,2.73083E-06
230.16,1.41994E-05
231.13,2.82365E-05
232.09,3.24262E-05
233.05,2.98391E-05
234.02,2.52804E-05
234.98,1.87329E-05
235.95,6.79391E-06
236.91,-7.81248E-06
237.88,-1.38721E-05
238.84,-1.23271E-05
239.8,-4.47373E-06
240.77,6.63114E-06
241.73,2.252E-05
242.7,4.38396E-05
243.66,6.63137E-05
244.62,8.58197E-05
245.59,9.87302E-05
246.55,0.000102248
247.52,0.000103092
248.48,0.000103946
249.45,0.000105101
250.41,0.000106882
251.37,0.00011514
252.34,0.000132152
253.3,0.00015248
254.27,0.000172097
255.23,0.000186583
256.2,0.000191083
257.16,0.000187655
258.12,0.000182573
259.09,0.000181611
260.05,0.000189714
261.02,0.000211601
261.98,0.000240621
262.95,0.000264679
263.91,0.000279038
264.87,0.000280528
265.84,0.00027195
266.8,0.000268322
267.77,0.000271428
268.73,0.000280014
269.69,0.000290396
270.66,0.000299843
271.62,0.000319091
272.59,0.000348653
273.55,0.000379567
274.52,0.000401282
275.48,0.000398743
276.44,0.000376552
277.41,0.000359123
278.37,0.000361662
279.34,0.000391012
280.3,0.000439581
281.27,0.000486089
282.23,0.000532314
283.19,0.000570859
284.16,0.000595297
285.12,0.000602385
286.09,0.000621925
287.05,0.000655586
288.02,0.000697548
288.98,0.000740652
289.94,0.000778409
290.91,0.000802281
291.87,0.000821302
292.84,0.000843228
293.8,0.000874691
294.76,0.000919787
295.73,0.000978748
296.69,0.001035834
297.66,0.001084701
298.62,0.001125149
299.59,0.001163162
300.55,0.001204694
301.51,0.001235599
302.48,0.001270468
303.44,0.001316659
304.41,0.001374011
305.37,0.001407767
306.34,0.001433929
307.3,0.001474035
308.26,0.001529168
309.23,0.001591568
310.19,0.001651887
311.16,0.001708074
312.12,0.001756948
313.09,0.001799823
314.05,0.001842522
315.01,0.001895963
315.98,0.001964278
316.94,0.002032195
317.91,0.002088407
318.87,0.002123759
319.83,0.002131826
320.8,0.002148441
321.76,0.002193263
322.73,0.002256936
323.69,0.002327338
324.66,0.00239201
325.62,0.002452522
326.58,0.002508441
327.55,0.002557954
328.51,0.002604952
329.48,0.002656073
330.44,0.002719091
331.41,0.002784535
332.37,0.002852227
333.33,0.002924175
334.3,0.003001963
335.26,0.003078297
336.23,0.003147646
337.19,0.003222638
338.16,0.003304065
339.12,0.003389328
340.08,0.00347228
341.05,0.00355936
342.01,0.003642016
342.98,0.003715051
343.94,0.003774598
344.91,0.003824742
345.87,0.003882003
346.83,0.003959124
347.8,0.004050945
348.76,0.004149801
349.73,0.004244417
350.69,0.004332403
351.65,0.004426066
352.62,0.004522041
353.58,0.004611807
354.55,0.004686312
355.51,0.004749697
356.48,0.004832357
357.44,0.004929456
358.4,0.00502927
359.37,0.005122535
360.33,0.005201929
361.3,0.005257583
362.26,0.005297356
363.23,0.005340149
364.19,0.005403873
365.15,0.005499185
366.12,0.005605514
367.08,0.005691166
368.05,0.005758472
369.01,0.005818252
369.98,0.005886735
370.94,0.005976893
371.9,0.006066462
372.87,0.006146231
373.83,0.006221184
374.8,0.006299514
375.76,0.00637471
376.72,0.00643847
377.69,0.006511827
378.65,0.00659212
379.62,0.006673655
380.58,0.006743938
381.55,0.006821701
382.51,0.006911694
383.47,0.006996968
384.44,0.007071351
385.4,0.007136526
386.37,0.007229705
387.33,0.007364129
388.3,0.007510189
389.26,0.007635056
390.22,0.007716151
391.19,0.007751567
392.15,0.007805856
393.12,0.00789773
394.08,0.008007855
395.05,0.008118792
396.01,0.008225187
396.97,0.008324912
397.94,0.008405894
398.9,0.008477235
399.87,0.008552183
400.83,0.008643822
401.79,0.008746324
402.76,0.008847783
403.72,0.008952598
404.69,0.009062543
405.65,0.009178411
406.62,0.009306477
407.58,0.009454337
408.54,0.009593571
409.51,0.009712312
410.47,0.00980708
411.44,0.009882257
412.4,0.00993755
413.37,0.0099997
414.33,0.010086264
415.29,0.010189349
416.26,0.010294543
417.22,0.010392064
418.19,0.010514508
419.15,0.010659446
420.12,0.010807436
421.08,0.010939334
422.04,0.011039473
423.01,0.011109902
423.97,0.011174215
424.94,0.011246432
425.9,0.01133794
426.86,0.01145936
427.83,0.011604607
428.79,0.011731321
429.76,0.011838589
430.72,0.011939127
431.69,0.012041823
432.65,0.012139146
433.61,0.012227862
434.58,0.012347587
435.54,0.012498575
436.51,0.012660986
437.47,0.0128023
438.44,0.012897202
439.4,0.012980937
440.36,0.013080308
441.33,0.013193192
442.29,0.013308164
443.26,0.013409232
444.22,0.013520195
445.19,0.013671794
446.15,0.013859406
447.11,0.014060069
448.08,0.014243455
449.04,0.01438549
450.01,0.014503939
450.97,0.014620306
451.93,0.014749467
452.9,0.014900724
453.86,0.015067518
454.83,0.015216445
455.79,0.015330994
456.76,0.015419889
457.72,0.015502679
458.68,0.015607943
459.65,0.015761617
460.61,0.015934174
461.58,0.016105627
462.54,0.016275835
463.51,0.016450252
464.47,0.016637821
465.43,0.016820072
466.4,0.016973258
467.36,0.017110662
468.33,0.017235278
469.29,0.017345382
470.26,0.017430963
471.22,0.017529411
472.18,0.017661312
473.15,0.017819638
474.11,0.017985903
475.08,0.018138491
476.04,0.01826081
477.01,0.018380151
477.97,0.018508772
478.93,0.018651197
479.9,0.018806411
480.86,0.018971239
481.83,0.019149914
482.79,0.019333521
483.75,0.019511477
484.72,0.019668298
485.68,0.019785088
486.65,0.019865835
487.61,0.019938219
488.58,0.019999885
489.54,0.020048913
490.5,0.020090628
491.47,0.020130406
492.43,0.020190877
493.4,0.020284604
494.36,0.020412546
495.33,0.020565223
496.29,0.020722822
497.25,0.020856252
498.22,0.020949136
499.18,0.02102596
500.15,0.021121815
501.11,0.021261529
502.08,0.021450097
503.04,0.021613599
504,0.021731362
504.97,0.021847419
505.93,0.021975998
506.9,0.02211912
507.86,0.022267217
508.82,0.022425174
509.79,0.022589379
510.75,0.022754404
511.72,0.022918866
512.68,0.023078113
513.65,0.023223805
514.61,0.023352986
515.57,0.023494598
516.54,0.02366335
517.5,0.023847839
518.47,0.02401688
519.43,0.024120123
520.4,0.024211914
521.36,0.024314797
522.32,0.02443027
523.29,0.024561612
524.25,0.024721178
525.22,0.024903131
526.18,0.025054832
527.15,0.025187065
528.11,0.025326192
529.07,0.025507924
530.04,0.025762832
531,0.026081308
531.97,0.026398065
532.93,0.026669148
533.89,0.026873969
534.86,0.027010896
535.82,0.027103672
536.79,0.027173465
537.75,0.027233542
538.72,0.027284072
539.68,0.027328348
540.64,0.027386502
541.61,0.027520258
542.57,0.027678754
543.54,0.027806826
544.5,0.027900853
545.47,0.027975228
546.43,0.028047953
547.39,0.028096397
548.36,0.028094605
549.32,0.028024735
550.29,0.027892587
551.25,0.027721898
552.22,0.02756601
553.18,0.027494201
554.14,0.027514399
555.11,0.02757239
556.07,0.027600946
557.04,0.027550224
558,0.027431872
558.96,0.027323339
559.93,0.02722824
560.89,0.027123174
561.86,0.026979991
562.82,0.026778758
563.79,0.026523275
564.75,0.026274679
565.71,0.02606887
566.68,0.025901725
567.64,0.025759691
568.61,0.025625179
569.57,0.025490326
570.54,0.02533727
571.5,0.025162936
572.46,0.024977643
573.43,0.024787879
574.39,0.024593485
575.36,0.02440158
576.32,0.024219112
577.29,0.024054305
578.25,0.023889027
579.21,0.023700562
580.18,0.023463951
581.14,0.023221612
582.11,0.023046655
583.07,0.02291614
584.03,0.022791101
585,0.022634986
585.96,0.022438574
586.93,0.022212702
587.89,0.021969808
588.86,0.021746742
589.82,0.021568768
590.78,0.021431377
591.75,0.021280167
592.71,0.021069294
593.68,0.020860945
594.64,0.020677251
595.61,0.020518131
596.57,0.020380007
597.53,0.020264206
598.5,0.020162969
599.46,0.020022622
600.43,0.019842737
601.39,0.019655242
602.36,0.019497991
603.32,0.019402438
604.28,0.019372709
605.25,0.019371926
606.21,0.019369602
607.18,0.019356773
608.14,0.019333516
609.1,0.019314438
610.07,0.01930636
611.03,0.019335635
612,0.019405488
612.96,0.019500103
613.93,0.019601799
614.89,0.019709026
615.85,0.01984819
616.82,0.019987082
617.78,0.020105068
618.75,0.020208368
619.71,0.020319347
620.68,0.020457483
621.64,0.02058229
622.6,0.020658675
623.57,0.020708812
624.53,0.020753101
625.5,0.020810131
626.46,0.020886847
627.43,0.020990058
628.39,0.021069485
629.35,0.021084869
630.32,0.021047546
631.28,0.020991398
632.25,0.020947768
633.21,0.020896576
634.18,0.020844318
635.14,0.020785584
636.1,0.020699181
637.07,0.0205634
638.03,0.020374941
639,0.020190724
639.96,0.020056913
640.92,0.019938703
641.89,0.019794763
642.85,0.019600077
643.82,0.019352708
644.78,0.019081673
645.75,0.018827423
646.71,0.018604351
647.67,0.018415359
648.64,0.018258667
649.6,0.018130217
650.57,0.017988583
651.53,0.017823679
652.5,0.01765354
653.46,0.017468107
654.42,0.017253557
655.39,0.01701101
656.35,0.016812272
657.32,0.016733404
658.28,0.016708567
659.25,0.01666604
660.21,0.01656783
661.17,0.016419953
662.14,0.016261996
663.1,0.016124829
664.07,0.016033206
665.03,0.01597105
665.99,0.015913407
666.96,0.015838767
667.92,0.015755058
668.89,0.015675991
669.85,0.015602332
670.82,0.015528723
671.78,0.015439634
672.74,0.015326938
673.71,0.015199154
674.67,0.015114965
675.64,0.01507494
676.6,0.015025865
677.57,0.014937188
678.53,0.014819291
679.49,0.014724483
680.46,0.014660634
681.42,0.014581228
682.39,0.014509213
683.35,0.014439082
684.32,0.014351329
685.28,0.014224101
686.24,0.014088659
687.21,0.013994627
688.17,0.013937668
689.14,0.013908634
690.1,0.013895503
691.06,0.013886179
692.03,0.013864279
692.99,0.013808845
693.96,0.013727736
694.92,0.013642429
695.89,0.013570822
696.85,0.013519418
697.81,0.013474053
698.78,0.013442858
699.74,0.013408653
700.71,0.013356536
701.67,0.013299907
702.64,0.013253616
703.6,0.013209576
704.56,0.013149698
705.53,0.013123527
706.49,0.013140165
707.46,0.013175332
708.42,0.01320245
709.39,0.013203581
710.35,0.013182059
711.31,0.01312746
712.28,0.013037235
713.24,0.012946435
714.21,0.012889881
715.17,0.012869983
716.13,0.012839337
717.1,0.012775472
718.06,0.012713786
719.03,0.012650697
719.99,0.012589817
720.96,0.012540911
721.92,0.012515743
722.88,0.012514627
723.85,0.01252171
724.81,0.012524541
725.78,0.012523441
726.74,0.01252346
727.71,0.012519538
728.67,0.012493641
729.63,0.012430891
730.6,0.012389848
731.56,0.012381175
732.53,0.012401294
733.49,0.012437684
734.46,0.012474318
735.42,0.012495729
736.38,0.012543286
737.35,0.012598028
738.31,0.01264167
739.28,0.012680066
740.24,0.012728029
741.2,0.012791357
742.17,0.01284392
743.13,0.012874133
744.1,0.01288786
745.06,0.012887428
746.03,0.012881541
746.99,0.012880984
747.95,0.012883183
748.92,0.012851801
749.88,0.012794743
750.85,0.012719281
751.81,0.012622185
752.78,0.012507909
753.74,0.012410051
754.7,0.012372837
755.67,0.0123541
756.63,0.012320857
757.6,0.012251978
758.56,0.012149808
759.53,0.012028845
760.49,0.011921607
761.45,0.011841238
762.42,0.011763613
763.38,0.011669696
764.35,0.011559729
765.31,0.011446321
766.28,0.011316761
767.24,0.011170657
768.2,0.011021139
769.17,0.010872716
770.13,0.010728006
771.1,0.010587324
772.06,0.010457703
773.02,0.010358342
773.99,0.010277818
774.95,0.010188069
775.92,0.010086372
776.88,0.009982719
777.85,0.009887689
778.81,0.009787772
779.77,0.009620962
780.74,0.009428567
781.7,0.009275457
782.67,0.009168017
783.63,0.009073476
784.6,0.008948928
785.56,0.008802976
786.52,0.008664011
787.49,0.008542653
788.45,0.008447794
789.42,0.008372234
790.38,0.00829782
791.35,0.008211209
792.31,0.008134755
793.27,0.008068641
794.24,0.007997847
795.2,0.007913081
796.17,0.007800796
797.13,0.007653109
798.09,0.007480582
799.06,0.007339622
800.02,0.007251581
800.99,0.007216871
801.95,0.007214109
802.92,0.007219092
803.88,0.007213223
804.84,0.00719192
805.81,0.00716293
806.77,0.007146104
807.74,0.007144735
808.7,0.007143267
809.67,0.00712946
810.63,0.00709687
811.59,0.007064186
812.56,0.00705637
813.52,0.007074952
814.49,0.007109272
815.45,0.007146732
816.42,0.007185936
817.38,0.007229854
818.34,0.00730217
819.31,0.007428267
820.27,0.007587732
821.24,0.007754037
822.2,0.007904942
823.16,0.008032518
824.13,0.008147863
825.09,0.008249153
826.06,0.008352408
827.02,0.008468575
827.99,0.008602718
828.95,0.008761073
829.91,0.008959848
830.88,0.009207333
831.84,0.009482677
832.81,0.00975731
833.77,0.010043848
834.74,0.010331317
835.7,0.010603344
836.66,0.010864824
837.63,0.011149818
838.59,0.011459777
839.56,0.011762616
840.52,0.012045052
841.49,0.012310507
842.45,0.01256677
843.41,0.012825368
844.38,0.013114251
845.34,0.013449574
846.31,0.013808953
847.27,0.014154368
848.23,0.014472791
849.2,0.014779103
850.16,0.015104196
851.13,0.015461728
852.09,0.01586135
853.06,0.016285459
854.02,0.01669055
854.98,0.017055376
855.95,0.017389842
856.91,0.017736423
857.88,0.018146027
858.84,0.018591515
859.81,0.019035122
860.77,0.019461219
861.73,0.019868325
862.7,0.020268402
863.66,0.020672766
864.63,0.021095159
865.59,0.021564042
866.56,0.022081576
867.52,0.022591877
868.48,0.023052732
869.45,0.023472575
870.41,0.023903523
871.38,0.024337634
872.34,0.024789711
873.3,0.025331426
874.27,0.025953447
875.23,0.026597414
876.2,0.027209049
877.16,0.027755213
878.13,0.028244656
879.09,0.028747154
880.05,0.029295686
881.02,0.029846049
881.98,0.030355976
882.95,0.030826154
883.91,0.031324773
884.88,0.031894423
885.84,0.032484338
886.8,0.033112072
887.77,0.033757717
888.73,0.03438711
889.7,0.034983519
890.66,0.035572381
891.63,0.03617373
892.59,0.036786597
893.55,0.037409773
894.52,0.038047342
895.48,0.038701988
896.45,0.039374502
897.41,0.040065972
898.37,0.040757228
899.34,0.04141736
900.3,0.042037825
901.27,0.042630087
902.23,0.043212733
903.2,0.043777848
904.16,0.044299394
905.12,0.044759609
906.09,0.045185829
907.05,0.045648353
908.02,0.046171497
908.98,0.046745624
909.95,0.047343142
910.91,0.047921859
911.87,0.04844617
912.84,0.048930943
913.8,0.049455876
914.77,0.050015252
915.73,0.050571832
916.7,0.051108502
917.66,0.051633035
918.62,0.05213899
919.59,0.052568624
920.55,0.052934587
921.52,0.053316846
922.48,0.053754001
923.45,0.054247727
924.41,0.054785787
925.37,0.055349101
926.34,0.055934486
927.3,0.056491067
928.27,0.056967065
929.23,0.057356751
930.19,0.057710191
931.16,0.058070888
932.12,0.058453767
933.09,0.058808618
934.05,0.05909294
935.02,0.05935262
935.98,0.059643799
936.94,0.060002402
937.91,0.060424277
938.87,0.06086287
939.84,0.061251081
940.8,0.061540095
941.77,0.061778023
942.73,0.061991163
943.69,0.062193397
944.66,0.0623968
945.62,0.0626129
946.59,0.062853029
947.55,0.063124674
948.52,0.063375169
949.48,0.063492553
950.44,0.063540099
951.41,0.063641577
952.37,0.063820218
953.34,0.063999976
954.3,0.064120094
955.26,0.064253882
956.23,0.064359828
957.19,0.064369567
958.16,0.064330008
959.12,0.064320196
960.09,0.064405106
961.05,0.06454688
962.01,0.064615686
962.98,0.06451187
963.94,0.064337297
964.91,0.064205454
965.87,0.064145971
966.84,0.064111986
967.8,0.064032488
968.76,0.063857269
969.73,0.063670794
970.69,0.063595761
971.66,0.063546532
972.62,0.063406406
973.59,0.063184701
974.55,0.062984734
975.51,0.062887927
976.48,0.062819176
977.44,0.062660899
978.41,0.062459413
979.37,0.062252712
980.33,0.062015767
981.3,0.061715709
982.26,0.061366523
983.23,0.0610628
984.19,0.060856227
985.16,0.06068943
986.12,0.060501622
987.08,0.060223722
988.05,0.059876072
989.01,0.059552354
989.98,0.05933441
990.94,0.059155179
991.91,0.05891589
992.87,0.058643062
993.83,0.058381649
994.8,0.058158134
995.76,0.05797359
996.73,0.057771063
997.69,0.057466197
998.66,0.057084693
999.62,0.056822599
1000.58,0.056669148
1001.55,0.056592644
1002.51,0.056557673
1003.48,0.056505117
1004.44,0.056378207
1005.41,0.056217164
1006.37,0.056099703
1007.33,0.055996098
1008.3,0.05588259
1009.26,0.055763877
1010.23,0.055659765
1011.19,0.055599864
1012.15,0.055598989
1013.12,0.055629692
1014.08,0.055651202
1015.05,0.055704418
1016.01,0.055818791
1016.98,0.055940188
1017.94,0.056001099
1018.9,0.055991863
1019.87,0.055995386
1020.83,0.056147443
1021.8,0.056408627
1022.76,0.056652964
1023.73,0.056881583
1024.69,0.057076764
1025.65,0.057226361
1026.62,0.057351808
1027.58,0.057531302
1028.55,0.057807919
1029.51,0.058103211
1030.48,0.05833911
1031.44,0.058503253
1032.4,0.058644287
1033.37,0.058843324
1034.33,0.059149537
1035.3,0.059531174
1036.26,0.059899945
1037.23,0.060249009
1038.19,0.060581276
1039.15,0.060909723
1040.12,0.061239753
1041.08,0.061552656
1042.05,0.061826444
1043.01,0.062033899
1043.97,0.062190475
1044.94,0.062388622
1045.9,0.062671892
1046.87,0.062990917
1047.83,0.063262394
1048.8,0.063455914
1049.76,0.063610288
1050.72,0.063820814
1051.69,0.064155235
1052.65,0.064487354
1053.62,0.064736671
1054.58,0.064927492
1055.55,0.065110516
1056.51,0.065291081
1057.47,0.065434824
1058.44,0.065512434
1059.4,0.065561024
1060.37,0.065623422
1061.33,0.065667815
1062.3,0.065690912
1063.26,0.065737154
1064.22,0.06581856
1065.19,0.065898601
1066.15,0.065927264
1067.12,0.065954656
1068.08,0.065983374
1069.04,0.065946034
1070.01,0.06587644
1070.97,0.065801127
1071.94,0.065690968
1072.9,0.065480434
1073.87,0.065170517
1074.83,0.064860969
1075.79,0.064555232
1076.76,0.064191713
1077.72,0.063784473
1078.69,0.063378919
1079.65,0.062996054
1080.62,0.06263321
1081.58,0.06229322
1082.54,0.062077238
1083.51,0.061917511
1084.47,0.061640102
1085.44,0.061268483
1086.4,0.060821323
1087.37,0.060285866
1088.33,0.059692121
1089.29,0.059124167
1090.26,0.058616376
1091.22,0.058088571
1092.19,0.057530752
1093.15,0.056959572
1094.11,0.05636661
1095.08,0.055750176
1096.04,0.05510889
1097.01,0.054451009
1097.97,0.053779529
1098.94,0.053154887
1099.9,0.052598576
1100.86,0.052050278
1101.83,0.051464911
1102.79,0.050826971
1103.76,0.050121668
1104.72,0.049340963
1105.69,0.048538325
1106.65,0.047790461
1107.61,0.047084785
1108.58,0.046403319
1109.54,0.04574046
1110.51,0.045081409
1111.47,0.044426987
1112.44,0.043781017
1113.4,0.04311195
1114.36,0.04235577
1115.33,0.041570464
1116.29,0.040866512
1117.26,0.040205586
1118.22,0.039619509
1119.18,0.039095011
1120.15,0.038558288
1121.11,0.037933185
1122.08,0.037267534
1123.04,0.036611627
1124.01,0.035952279
1124.97,0.035298042
1125.93,0.034651705
1126.9,0.03397864
1127.86,0.033265743
1128.83,0.032561259
1129.79,0.031944463
1130.76,0.031402205
1131.72,0.03085338
1132.68,0.030327212
1133.65,0.029788567
1134.61,0.029195924
1135.58,0.028573999
1136.54,0.027966749
1137.51,0.027382477
1138.47,0.026803723
1139.43,0.026240364
1140.4,0.025733336
1141.36,0.025243994
1142.33,0.024722955
1143.29,0.024178662
1144.25,0.023647662
1145.22,0.023151841
1146.18,0.022669041
1147.15,0.022202323
1148.11,0.021765595
1149.08,0.0212583
1150.04,0.020674783
1151,0.0201045
1151.97,0.019603422
1152.93,0.019156683
1153.9,0.018714082
1154.86,0.018241143
1155.83,0.017750449
1156.79,0.017270609
1157.75,0.016799476
1158.72,0.01634221
1159.68,0.015895929
1160.65,0.015451356
1161.61,0.015005609
1162.58,0.014581174
1163.54,0.014229126
1164.5,0.013952364
1165.47,0.013608944
1166.43,0.013193313
1167.4,0.012759769
1168.36,0.012330066
1169.32,0.01191916
1170.29,0.011542146
1171.25,0.01120125
1172.22,0.010872176
1173.18,0.010557099
1174.15,0.010256399
1175.11,0.009942524
1176.07,0.009600672
1177.04,0.009245827
1178,0.008912519
1178.97,0.008623519
1179.93,0.008381172
1180.9,0.008158468
1181.86,0.007912643
1182.82,0.007608785
1183.79,0.007269387
1184.75,0.00694922
1185.72,0.006668684
1186.68,0.006400041
1187.65,0.006133484
1188.61,0.005888929
1189.57,0.005684213
1190.54,0.005489314
1191.5,0.005273706
1192.47,0.00507044
1193.43,0.004881848
1194.4,0.004685381
1195.36,0.004485884
1196.32,0.004293634
1197.29,0.004101124
1198.25,0.003913201
1199.22,0.003773421
1200.18,0.003656225
1201.14,0.003513308
1202.11,0.003349762
1203.07,0.003175579
1204.04,0.003006287
1205,0.002846833
1205.97,0.002710269
1206.93,0.002588747
1207.89,0.002456731
1208.86,0.002311704
1209.82,0.002212686
1210.79,0.002188378
1211.75,0.002166537
1212.72,0.002093093
1213.68,0.001972875
1214.64,0.001831722
1215.61,0.001690407
1216.57,0.001551337
1217.54,0.001417299
1218.5,0.001329736
1219.47,0.001299376
1220.43,0.001289742
1221.39,0.001256648
1222.36,0.001187058
1223.32,0.001098978
1224.29,0.001018691
1225.25,0.000951277
1226.21,0.000907355
1227.18,0.00085297
1228.14,0.000798422
1229.11,0.000749144
1230.07,0.000715505
1231.04,0.000705636
1232,0.000714155
1232.96,0.000704247
1233.93,0.000652158
1234.89,0.000584035
1235.86,0.000563569
1236.82,0.000564216
1237.79,0.000541106
1238.75,0.000478053
1239.71,0.000406932
1240.68,0.000365074
1241.64,0.000339062
1242.61,0.000281122
1243.57,0.000190976
1244.54,0.000156894
1245.5,0.000184217
1246.46,0.00022502
1247.43,0.000263352
1248.39,0.000277561
1249.36,0.00024627
1250.32,0.0001826
1251.28,0.000132296
1252.25,0.000141286
1253.21,0.000185294
1254.18,0.000205228
1255.14,0.000198128
1256.11,0.000172214
1257.07,0.00012724
1258.03,8.49255E-05
1259,6.97872E-05
1259.96,7.08543E-05
1260.93,5.30317E-05
1261.89,-1.11377E-05
1262.86,-2.35524E-05
1263.82,7.29993E-05
1264.78,0.000158865
1265.75,0.000130312
1266.71,3.87515E-05
1267.68,-1.72701E-05
1268.64,1.42095E-05
1269.61,9.25135E-05
1270.57,0.000157184
1271.53,0.000200038
1272.5,0.000237618
1273.46,0.000280712
1274.43,0.000304745
1275.39,0.000306685
1276.35,0.000311429
1277.32,0.000332914
1278.28,0.000357138
1279.25,0.000342782
1280.21,0.000295059
1281.18,0.000269587
1282.14,0.000285661
1283.1,0.000332392
1284.07,0.000396061
1285.03,0.000462567
1286,0.000507043
1286.96,0.000523616
1287.93,0.000529194
1288.89,0.000565473
1289.85,0.000632654
1290.82,0.000686106
1291.78,0.000736779
1292.75,0.000784896
1293.71,0.000821782
1294.68,0.000864523
1295.64,0.000926971
1296.6,0.001000852
1297.57,0.001077858
1298.53,0.001157749
1299.5,0.001243609
1300.46,0.001301245
1301.42,0.001330702
1302.39,0.001351875
1303.35,0.001367315
1304.32,0.00138295
1305.28,0.001418425
1306.25,0.001499671
1307.21,0.001623713
1308.17,0.00174517
1309.14,0.001807093
1310.1,0.001831881
1311.07,0.00186547
1312.03,0.001927645
1313,0.0020245
1313.96,0.002121432
1314.92,0.002195611
1315.89,0.002249992
1316.85,0.002310119
1317.82,0.002387813
1318.78,0.002488596
1319.75,0.002589756
1320.71,0.002673662
1321.67,0.002746198
1322.64,0.002798803
1323.6,0.002828217
1324.57,0.002852076
1325.53,0.002887458
1326.5,0.0029347
1327.46,0.002981939
1328.42,0.003026353
1329.39,0.00307979
1330.35,0.00316236
1331.32,0.003259851
1332.28,0.003366166
1333.24,0.003487325
1334.21,0.003600111
1335.17,0.003672004
1336.14,0.003711958
1337.1,0.003778243
1338.07,0.003880112
1339.03,0.003937938
1339.99,0.003972321
1340.96,0.004042362
1341.92,0.004094679
1342.89,0.004129567
1343.85,0.004155524
1344.82,0.004187657
1345.78,0.004231524
1346.74,0.004293274
1347.71,0.004370182
1348.67,0.004447068
1349.64,0.004515401
1350.6,0.004571827
1351.57,0.004625571
1352.53,0.00470606
1353.49,0.004816575
1354.46,0.004903608
1355.42,0.004921908
1356.39,0.004892642
1357.35,0.004887064
1358.31,0.004926444
1359.28,0.004990142
1360.24,0.005086775
1361.21,0.005195831
1362.17,0.005310959
1363.14,0.005414455
1364.1,0.005481806
1365.06,0.005495047
1366.03,0.005493416
1366.99,0.005527859
1367.96,0.005598888
1368.92,0.005630512
1369.89,0.005595761
1370.85,0.005581992
1371.81,0.005616792
1372.78,0.00564277
1373.74,0.005647323
1374.71,0.005649039
1375.67,0.005656699
1376.64,0.005679822
1377.6,0.00572115
1378.56,0.005783935
1379.53,0.005850126
1380.49,0.005885641
1381.46,0.005884687
1382.42,0.005877409
1383.38,0.005873211
1384.35,0.005853844
1385.31,0.005812758
1386.28,0.005787188
1387.24,0.005810682
1388.21,0.005868405
1389.17,0.005904378
1390.13,0.005887949
1391.1,0.005862447
1392.06,0.005895488
1393.03,0.005950542
1393.99,0.005955863
1394.96,0.005914872
1395.92,0.005873585
1396.88,0.005857153
1397.85,0.005856457
1398.81,0.005846225
1399.78,0.005833092
1400.74,0.005838472
1401.71,0.005872211
1402.67,0.005855765
1403.63,0.005779854
1404.6,0.005704039
1405.56,0.005649813
1406.53,0.005633411
1407.49,0.005651311
1408.45,0.005684986
1409.42,0.005722073
1410.38,0.005762222
1411.35,0.005802648
1412.31,0.005817717
1413.28,0.00581726
1414.24,0.005750201
1415.2,0.005572309
1416.17,0.005454497
1417.13,0.005447191
1418.1,0.005503555
1419.06,0.00559159
1420.03,0.005676842
1420.99,0.005692045
1421.95,0.005621332
1422.92,0.005541166
1423.88,0.005521243
1424.85,0.005549409
1425.81,0.005609395
1426.78,0.005682519
1427.74,0.005697901
1428.7,0.005598016
1429.67,0.005466086
1430.63,0.00540114
1431.6,0.005413422
1432.56,0.005428724
1433.52,0.005411893
1434.49,0.005398489
1435.45,0.005394516
1436.42,0.005387546
1437.38,0.005402957
1438.35,0.005438031
1439.31,0.005466477
1440.27,0.005482044
1441.24,0.005478458
1442.2,0.005461635
1443.17,0.005454764
1444.13,0.005473664
1445.1,0.005496123
1446.06,0.005498831
1447.02,0.005534162
1447.99,0.005546962
1448.95,0.005494261
1449.92,0.005438471
1450.88,0.005421578
1451.85,0.005424539
1452.81,0.005430593
1453.77,0.005433339
1454.74,0.005446211
1455.7,0.005465455
1456.67,0.005465244
1457.63,0.005441772
1458.59,0.005408369
1459.56,0.005408152
1460.52,0.005447282
1461.49,0.005463634
1462.45,0.005423559
1463.42,0.005350599
1464.38,0.005277255
1465.34,0.005217068
1466.31,0.005200144
1467.27,0.005219497
1468.24,0.005259066
1469.2,0.00530843
1470.17,0.005321533
1471.13,0.005227802
1472.09,0.005063861
1473.06,0.00495662
1474.02,0.004942523
1474.99,0.004928642
1475.95,0.004857618
1476.92,0.004763258
1477.88,0.004708718
1478.84,0.004680956
1479.81,0.004606361
1480.77,0.00447763
1481.74,0.0043691
1482.7,0.004327484
1483.67,0.004302919
1484.63,0.004224088
1485.59,0.004101252
1486.56,0.003998713
1487.52,0.00394987
1488.49,0.003897824
1489.45,0.003764122
1490.41,0.003555609
1491.38,0.003404632
1492.34,0.003365312
1493.31,0.00332275
1494.27,0.003218632
1495.24,0.003114569
1496.2,0.003030563
1497.16,0.002943002
1498.13,0.002838449
1499.09,0.002747165
1500.06,0.002703849
1501.02,0.002704754
1501.99,0.002702463
1502.95,0.00265536
1503.91,0.002570425
1504.88,0.002461518
1505.84,0.002321258
1506.81,0.002215401
1507.77,0.002140151
1508.74,0.002068442
1509.7,0.001986046
1510.66,0.001900059
1511.63,0.001821062
1512.59,0.001755556
1513.56,0.001697086
1514.52,0.001631372
1515.48,0.001565551
1516.45,0.001503312
1517.41,0.00144423
1518.38,0.001381788
1519.34,0.001329472
1520.31,0.001277284
1521.27,0.001207366
1522.23,0.001147802
1523.2,0.001098836
1524.16,0.001060059
1525.13,0.001056426
1526.09,0.001073583
1527.06,0.001055946
1528.02,0.00098896
1528.98,0.000904309
1529.95,0.000830275
1530.91,0.000766452
1531.88,0.00070274
1532.84,0.000649276
1533.81,0.000645301
1534.77,0.000694038
1535.73,0.000704016
1536.7,0.000604647
1537.66,0.00047306
1538.63,0.000422907
1539.59,0.000443331
1540.55,0.000435419
1541.52,0.000381561
1542.48,0.000306086
1543.45,0.000223585
1544.41,0.00015853
1545.38,0.000136321
1546.34,0.000149516
1547.3,0.000162735
1548.27,0.00017262
1549.23,0.000196608
1550.2,0.000231583
1551.16,0.000287887
1552.13,0.000405417
1553.09,0.000583897
1554.05,0.000777035
1555.02,0.001006645
1555.98,0.00116092
1556.95,0.001186139
1557.91,0.001074319
1558.88,0.000753476
1559.84,0.000377756
1560.8,0.000131384
1561.77,2.21267E-05
1562.73,-2.96629E-05
1563.7,-7.04674E-05
1564.66,-0.000100687
1565.62,-9.83247E-05
1566.59,-7.39724E-05
1567.55,-6.43219E-05
1568.52,-6.53465E-05
1569.48,-7.75027E-05
1570.45,-0.000118595
1571.41,-0.000152683
1572.37,-0.000146712
1573.34,-0.000122266
1574.3,-8.33828E-05
1575.27,-4.42211E-05
1576.23,-8.57199E-05
1577.2,-0.000211313
1578.16,-0.000311675
1579.12,-0.000280137
1580.09,-0.000167556
1581.05,-0.000121151
1582.02,-0.00017008
1582.98,-0.00017514
1583.95,-6.57905E-05
1584.91,-8.09869E-06
1585.87,-8.31606E-05
1586.84,-0.000161829
1587.8,-0.000155833
1588.77,-0.000112622
1589.73,-8.43704E-05
1590.69,-8.20162E-05
1591.66,-6.46104E-05
1592.62,-2.88406E-05
1593.59,1.09165E-05
1594.55,3.93611E-05
1595.52,4.94616E-05
1596.48,4.07323E-05
1597.44,-1.56225E-06
1598.41,-2.13327E-05
1599.37,3.43849E-06
