RamanShift,NBS2
49.85,-3.32601E-05
50.81,-1.89587E-05
51.78,-5.50528E-06
52.74,7.05766E-06
53.71,2.17275E-05
54.67,4.2147E-05
55.64,7.51439E-05
56.6,0.000106124
57.56,0.000133716
58.53,0.000157196
59.49,0.000175888
60.46,0.000182887
61.42,0.000186516
62.38,0.000184877
63.35,0.000179261
64.31,0.000175297
65.28,0.00018452
66.24,0.000199765
67.21,0.000219189
68.17,0.000241303
69.13,0.000266969
70.1,0.000294475
71.06,0.000322282
72.03,0.000346866
72.99,0.000363299
73.96,0.000368734
74.92,0.000375441
75.88,0.000379429
76.85,0.000380986
77.81,0.000385422
78.78,0.000396938
79.74,0.000410089
80.71,0.000426065
81.67,0.000444839
82.63,0.000461882
83.6,0.000469843
84.56,0.000472293
85.53,0.000472146
86.49,0.000472101
87.45,0.000479626
88.42,0.000500655
89.38,0.000530714
90.35,0.000563669
91.31,0.000588995
92.28,0.000604989
93.24,0.000613625
94.2,0.00061359
95.17,0.000606944
96.13,0.000603827
97.1,0.000599591
98.06,0.000597535
99.03,0.000598158
99.99,0.000600695
100.95,0.000606576
101.92,0.000624756
102.88,0.000647708
103.85,0.000671633
104.81,0.000693286
105.78,0.000711693
106.74,0.000723532
107.7,0.000728676
108.67,0.000727809
109.63,0.000722301
110.6,0.000709675
111.56,0.000704994
112.52,0.000713248
113.49,0.000733844
114.45,0.000752015
115.42,0.000763368
116.38,0.000770278
117.35,0.000774918
118.31,0.00077846
119.27,0.000780217
120.24,0.00078304
121.2,0.000791954
122.17,0.000808649
123.13,0.0008317
124.1,0.000848391
125.06,0.000851566
126.02,0.000844895
126.99,0.000833752
127.95,0.000826269
128.92,0.000827435
129.88,0.000829946
130.85,0.00083128
131.81,0.000830717
132.77,0.000832221
133.74,0.000840649
134.7,0.000850261
135.67,0.000860004
136.63,0.000868573
137.59,0.000872603
138.56,0.000876008
139.52,0.000877791
140.49,0.000876214
141.45,0.000868759
142.42,0.000859471
143.38,0.000849926
144.34,0.000838371
145.31,0.000825116
146.27,0.000811821
147.24,0.000808058
148.2,0.000811741
149.17,0.000819655
150.13,0.000829334
151.09,0.000838051
152.06,0.000847324
153.02,0.000850213
153.99,0.000847297
154.95,0.000839704
155.92,0.000830058
156.88,0.000812444
157.84,0.000793692
158.81,0.00077762
159.77,0.000766688
160.74,0.000760752
161.7,0.000754965
162.66,0.000746811
163.63,0.000735478
164.59,0.000722218
165.56,0.000711674
166.52,0.000707518
167.49,0.000708893
168.45,0.000713918
169.41,0.000719626
170.38,0.00071976
171.34,0.000709569
172.31,0.000694293
173.27,0.000677468
174.24,0.000662122
175.2,0.0006467
176.16,0.000634444
177.13,0.000621555
178.09,0.000606005
179.06,0.000586311
180.02,0.000570573
180.99,0.000561549
181.95,0.000556566
182.91,0.000552215
183.88,0.00054276
184.84,0.000521103
185.81,0.000497623
186.77,0.000480204
187.74,0.000472622
188.7,0.000471497
189.66,0.000463344
190.63,0.000449722
191.59,0.000430851
192.56,0.000409274
193.52,0.000391833
194.48,0.000383942
195.45,0.000373473
196.41,0.000356288
197.38,0.000332966
198.34,0.000313737
199.31,0.000307224
200.27,0.000306997
201.23,0.000309522
202.2,0.000311846
203.16,0.000312968
204.13,0.000313386
205.09,0.000310163
206.06,0.000301572
207.02,0.000287935
207.98,0.000276513
208.95,0.000271823
209.91,0.000266269
210.88,0.000256365
211.84,0.000240974
212.81,0.000227382
213.77,0.000218674
214.73,0.000212141
215.7,0.000206807
216.66,0.000202409
217.63,0.000197944
218.59,0.000189137
219.55,0.000177515
220.52,0.000164648
221.48,0.0001532
222.45,0.000143773
223.41,0.000131719
224.38,0.000112851
225.34,9.03629E-05
226.3,7.06457E-05
227.27,7.04305E-05
228.23,6.96343E-05
229.2,6.33853E-05
230.16,5.64677E-05
231.13,5.67091E-05
232.09,6.30807E-05
233.05,6.30636E-05
234.02,5.65339E-05
234.98,4.39552E-05
235.95,2.55137E-05
236.91,7.73527E-06
237.88,5.01818E-08
238.84,1.43599E-06
239.8,1.02207E-05
240.77,2.22111E-05
241.73,2.90574E-05
242.7,3.22277E-05
243.66,3.79578E-05
244.62,4.693E-05
245.59,5.60126E-05
246.55,5.52424E-05
247.52,5.15516E-05
248.48,4.716E-05
249.45,4.17314E-05
250.41,3.55747E-05
251.37,3.56332E-05
252.34,4.3353E-05
253.3,5.48476E-05
254.27,6.78266E-05
255.23,7.92577E-05
256.2,8.1612E-05
257.16,7.0605E-05
258.12,5.60143E-05
259.09,4.81937E-05
260.05,5.6686E-05
261.02,8.84487E-05
261.98,0.000118096
262.95,0.000132811
263.91,0.000133394
264.87,0.000126792
265.84,0.000120476
266.8,0.000116255
267.77,0.000115273
268.73,0.000116472
269.69,0.000118416
270.66,0.000118895
271.62,0.000129448
272.59,0.000150252
273.55,0.000174665
274.52,0.00019365
275.48,0.000200612
276.44,0.000191146
277.41,0.000173094
278.37,0.000159871
279.34,0.000165603
280.3,0.000202721
281.27,0.000257954
282.23,0.000309782
283.19,0.000349402
284.16,0.000370234
285.12,0.00037074
286.09,0.000369635
287.05,0.000386762
288.02,0.000423257
288.98,0.000471572
289.94,0.000514992
290.91,0.000536885
291.87,0.00055187
292.84,0.000567837
293.8,0.000591491
294.76,0.000629303
295.73,0.000687038
296.69,0.000746136
297.66,0.000795094
298.62,0.000831521
299.59,0.000860507
300.55,0.00089623
301.51,0.000933134
302.48,0.000969963
303.44,0.001003961
304.41,0.00103164
305.37,0.001045661
306.34,0.001074162
307.3,0.001119947
308.26,0.001174257
309.23,0.001224993
310.19,0.001275184
311.16,0.00133686
312.12,0.001397611
313.09,0.001450605
314.05,0.001495128
315.01,0.001542804
315.98,0.001600785
316.94,0.001654915
317.91,0.001701031
318.87,0.001739331
319.83,0.00177266
320.8,0.001798148
321.76,0.001828049
322.73,0.001869859
323.69,0.001923067
324.66,0.001980672
325.62,0.002037649
326.58,0.002093077
327.55,0.002142578
328.51,0.002187375
329.48,0.002232076
330.44,0.002285518
331.41,0.002343968
332.37,0.002405269
333.33,0.002469552
334.3,0.00253594
335.26,0.002597064
336.23,0.002652045
337.19,0.002710907
338.16,0.002779105
339.12,0.002859642
340.08,0.002955926
341.05,0.00304674
342.01,0.003114355
342.98,0.003167212
343.94,0.003217081
344.91,0.003277538
345.87,0.003345217
346.83,0.003420339
347.8,0.003501509
348.76,0.003585259
349.73,0.003663187
350.69,0.003732736
351.65,0.003803274
352.62,0.003873871
353.58,0.003941995
354.55,0.004005702
355.51,0.004076884
356.48,0.004162115
357.44,0.004255597
358.4,0.004349688
359.37,0.004436063
360.33,0.004506891
361.3,0.004558338
362.26,0.004601857
363.23,0.004649214
364.19,0.00471106
365.15,0.004790647
366.12,0.004877289
367.08,0.004947341
368.05,0.005003905
369.01,0.005057043
369.98,0.005124823
370.94,0.005218859
371.9,0.005302755
372.87,0.005368226
373.83,0.005427849
374.8,0.00549881
375.76,0.005582628
376.72,0.005652374
377.69,0.005727572
378.65,0.005806625
379.62,0.005885098
380.58,0.005951481
381.55,0.006019652
382.51,0.006084854
383.47,0.006142917
384.44,0.006197723
385.4,0.00626129
386.37,0.006359381
387.33,0.006483576
388.3,0.006608802
389.26,0.006719848
390.22,0.006808004
391.19,0.006876344
392.15,0.006946745
393.12,0.007029902
394.08,0.007125567
395.05,0.007231005
396.01,0.007345862
396.97,0.007450965
397.94,0.007533897
398.9,0.007602503
399.87,0.007667131
400.83,0.007735005
401.79,0.00781579
402.76,0.007913287
403.72,0.008022296
404.69,0.00813349
405.65,0.008241006
406.62,0.008353339
407.58,0.008497804
408.54,0.008645089
409.51,0.008768306
410.47,0.008850733
411.44,0.008894008
412.4,0.008935018
413.37,0.009011663
414.33,0.009112588
415.29,0.009221013
416.26,0.009319037
417.22,0.0094067
418.19,0.009509107
419.15,0.009634921
420.12,0.009773694
421.08,0.009909299
422.04,0.01001926
423.01,0.010092955
423.97,0.010155858
424.94,0.01022002
425.9,0.010296307
426.86,0.010397451
427.83,0.010537072
428.79,0.010682848
429.76,0.010807074
430.72,0.010912505
431.69,0.011010671
432.65,0.011108156
433.61,0.011211213
434.58,0.011343954
435.54,0.011508898
436.51,0.01168545
437.47,0.011837762
438.44,0.011938005
439.4,0.012023984
440.36,0.012119328
441.33,0.0122245
442.29,0.012332675
443.26,0.012440229
444.22,0.012568446
445.19,0.012723568
446.15,0.012894447
447.11,0.01307383
448.08,0.01325678
449.04,0.013441661
450.01,0.013592929
450.97,0.013727303
451.93,0.013862945
452.9,0.014009065
453.86,0.014154525
454.83,0.01428534
455.79,0.014394825
456.76,0.014486193
457.72,0.014575039
458.68,0.014683235
459.65,0.014839464
460.61,0.015024883
461.58,0.015217933
462.54,0.015403413
463.51,0.015576331
464.47,0.015741502
465.43,0.01591868
466.4,0.016097902
467.36,0.016261955
468.33,0.016399178
469.29,0.016505999
470.26,0.016596405
471.22,0.016722094
472.18,0.01687977
473.15,0.017045303
474.11,0.017201754
475.08,0.017345927
476.04,0.017496861
477.01,0.017656447
477.97,0.017813709
478.93,0.017969801
479.9,0.018128697
480.86,0.018302152
481.83,0.018496426
482.79,0.018685845
483.75,0.018847731
484.72,0.018978085
485.68,0.019088524
486.65,0.019192047
487.61,0.019294464
488.58,0.019396832
489.54,0.019490236
490.5,0.019573393
491.47,0.019651136
492.43,0.01973903
493.4,0.019847921
494.36,0.01998307
495.33,0.020141342
496.29,0.02030851
497.25,0.020458401
498.22,0.020579121
499.18,0.020695177
500.15,0.020821096
501.11,0.020956644
502.08,0.021099589
503.04,0.021250575
504,0.02141566
504.97,0.021578171
505.93,0.021730747
506.9,0.021875188
507.86,0.02202144
508.82,0.022180094
509.79,0.022348974
510.75,0.022528088
511.72,0.022714804
512.68,0.022901687
513.65,0.023083235
514.61,0.023248142
515.57,0.02340043
516.54,0.023551092
517.5,0.023709972
518.47,0.023885971
519.43,0.024058272
520.4,0.024190064
521.36,0.024286631
522.32,0.024380449
523.29,0.024507457
524.25,0.024691476
525.22,0.02489694
526.18,0.025070734
527.15,0.025218795
528.11,0.025361836
529.07,0.025532349
530.04,0.025767022
531,0.026069978
531.97,0.026372715
532.93,0.026621314
533.89,0.026791578
534.86,0.026890471
535.82,0.026981017
536.79,0.027105867
537.75,0.027206651
538.72,0.027265726
539.68,0.02729237
540.64,0.027329792
541.61,0.027429579
542.57,0.027563752
543.54,0.027694029
544.5,0.027799862
545.47,0.027871355
546.43,0.027900866
547.39,0.027898788
548.36,0.027881988
549.32,0.027820482
550.29,0.027707056
551.25,0.02755451
552.22,0.027411868
553.18,0.027335191
554.14,0.027328884
555.11,0.027359995
556.07,0.027367519
557.04,0.027306251
558,0.027188738
558.96,0.027110019
559.93,0.027033295
560.89,0.026913678
561.86,0.026735199
562.82,0.026508897
563.79,0.026269435
564.75,0.026045834
565.71,0.025850547
566.68,0.025683411
567.64,0.025536852
568.61,0.025408055
569.57,0.025286381
570.54,0.025124059
571.5,0.024909825
572.46,0.024687987
573.43,0.024497741
574.39,0.024348945
575.36,0.024192273
576.32,0.024047122
577.29,0.023900578
578.25,0.023715706
579.21,0.023474302
580.18,0.023191802
581.14,0.022930305
582.11,0.022747971
583.07,0.022616843
584.03,0.022494858
585,0.022345083
585.96,0.02215518
586.93,0.021932754
587.89,0.02169094
588.86,0.021461732
589.82,0.021278702
590.78,0.02115291
591.75,0.021044777
592.71,0.020855791
593.68,0.02063155
594.64,0.020429391
595.61,0.020273951
596.57,0.020161474
597.53,0.02007545
598.5,0.019989449
599.46,0.019865949
600.43,0.019714822
601.39,0.019564877
602.36,0.0194534
603.32,0.019407567
604.28,0.019433734
605.25,0.019498301
606.21,0.01957411
607.18,0.019642507
608.14,0.019684981
609.1,0.019704232
610.07,0.019758757
611.03,0.019889937
612,0.020065177
612.96,0.020244182
613.93,0.020407514
614.89,0.020584096
615.85,0.020828299
616.82,0.021080853
617.78,0.021311221
618.75,0.021522759
619.71,0.021732159
620.68,0.021954594
621.64,0.022149859
622.6,0.02228836
623.57,0.022392974
624.53,0.022487652
625.5,0.022595149
626.46,0.022727742
627.43,0.022867077
628.39,0.022961687
629.35,0.022982566
630.32,0.022940555
631.28,0.02287231
632.25,0.022817386
633.21,0.022786169
634.18,0.022739093
635.14,0.022633688
636.1,0.022458777
637.07,0.022232997
638.03,0.021999685
639,0.021803944
639.96,0.021627902
640.92,0.021437505
641.89,0.021216691
642.85,0.020957083
643.82,0.020665547
644.78,0.020341075
645.75,0.020014491
646.71,0.019721136
647.67,0.019470542
648.64,0.01925956
649.6,0.019080079
650.57,0.018895102
651.53,0.01868231
652.5,0.018444831
653.46,0.018185485
654.42,0.017911152
655.39,0.01764878
656.35,0.017455307
657.32,0.017342066
658.28,0.017249645
659.25,0.017140505
660.21,0.016995714
661.17,0.016824321
662.14,0.016647458
663.1,0.016510976
664.07,0.016406527
665.03,0.016309201
665.99,0.016200856
666.96,0.016071558
667.92,0.015932084
668.89,0.015796228
669.85,0.015667478
670.82,0.015539636
671.78,0.015413566
672.74,0.015284431
673.71,0.015150918
674.67,0.01500461
675.64,0.014859286
676.6,0.014725026
677.57,0.014601253
678.53,0.014485874
679.49,0.01436999
680.46,0.014237796
681.42,0.014100744
682.39,0.013983537
683.35,0.013880375
684.32,0.013767438
685.28,0.013626862
686.24,0.013483022
687.21,0.01338895
688.17,0.013321402
689.14,0.013244238
690.1,0.013144658
691.06,0.013029637
692.03,0.012925277
692.99,0.012812034
693.96,0.01269715
694.92,0.012600811
695.89,0.012529095
696.85,0.012476151
697.81,0.012429864
698.78,0.012382157
699.74,0.012315958
700.71,0.012219081
701.67,0.012093722
702.64,0.011958295
703.6,0.011843087
704.56,0.01178061
705.53,0.011765714
706.49,0.01176594
707.46,0.01175787
708.42,0.011732579
709.39,0.011687548
710.35,0.011626556
711.31,0.011541189
712.28,0.011431527
713.24,0.011314112
714.21,0.011207813
715.17,0.011113744
716.13,0.011027855
717.1,0.010941793
718.06,0.010868105
719.03,0.010815817
719.99,0.010771749
720.96,0.010724752
721.92,0.010674491
722.88,0.010632667
723.85,0.010596597
724.81,0.010552937
725.78,0.010503401
726.74,0.010449121
727.71,0.010397673
728.67,0.010361901
729.63,0.01035228
730.6,0.010351532
731.56,0.010371118
732.53,0.010404101
733.49,0.010426678
734.46,0.010414001
735.42,0.010392196
736.38,0.010393967
737.35,0.010416585
738.31,0.010464311
739.28,0.010534623
740.24,0.01061389
741.2,0.010678422
742.17,0.010710374
743.13,0.010710776
744.1,0.010685778
745.06,0.010642449
746.03,0.010593056
746.99,0.010544792
747.95,0.010515948
748.92,0.010482569
749.88,0.01043372
750.85,0.010377222
751.81,0.010306653
752.78,0.010196388
753.74,0.01005353
754.7,0.009952936
755.67,0.009876562
756.63,0.009792085
757.6,0.009687489
758.56,0.009562386
759.53,0.009424649
760.49,0.009286284
761.45,0.009164407
762.42,0.009046873
763.38,0.008924139
764.35,0.00879333
765.31,0.008654163
766.28,0.008489719
767.24,0.00832303
768.2,0.008177638
769.17,0.00803185
770.13,0.007871366
771.1,0.007697868
772.06,0.007522107
773.02,0.007359925
773.99,0.007214627
774.95,0.007081384
775.92,0.006952502
776.88,0.006815185
777.85,0.00666478
778.81,0.006491557
779.77,0.006295475
780.74,0.006113182
781.7,0.005957329
782.67,0.005817032
783.63,0.005671375
784.6,0.005514092
785.56,0.005359437
786.52,0.005217151
787.49,0.005101824
788.45,0.005010272
789.42,0.004924928
790.38,0.004827908
791.35,0.004714404
792.31,0.004600472
793.27,0.00449105
794.24,0.0043748
795.2,0.004241813
796.17,0.004097003
797.13,0.003948413
798.09,0.00380591
799.06,0.003687596
800.02,0.003608304
800.99,0.003564988
801.95,0.003539618
802.92,0.003512527
803.88,0.003465479
804.84,0.00339011
805.81,0.003311204
806.77,0.00325194
807.74,0.003214123
808.7,0.003199467
809.67,0.003196464
810.63,0.003186707
811.59,0.003145116
812.56,0.003101728
813.52,0.003095104
814.49,0.00312374
815.45,0.003174299
816.42,0.003226714
817.38,0.003287663
818.34,0.003369084
819.31,0.003489678
820.27,0.003632624
821.24,0.003767508
822.2,0.003885745
823.16,0.004004297
824.13,0.004150502
825.09,0.004290241
826.06,0.004399613
827.02,0.004500689
827.99,0.004614072
828.95,0.004756943
829.91,0.004938053
830.88,0.005178305
831.84,0.005470951
832.81,0.005745466
833.77,0.005991282
834.74,0.006234362
835.7,0.006504104
836.66,0.006816303
837.63,0.007132931
838.59,0.007420721
839.56,0.007697188
840.52,0.007972561
841.49,0.00824528
842.45,0.00850464
843.41,0.008752401
844.38,0.009013246
845.34,0.009322238
846.31,0.009653348
847.27,0.009972901
848.23,0.010270318
849.2,0.010556266
850.16,0.010873005
851.13,0.01126709
852.09,0.01165325
853.06,0.011983587
854.02,0.012289688
854.98,0.012618044
855.95,0.012977845
856.91,0.013333072
857.88,0.013648139
858.84,0.013990829
859.81,0.014399366
860.77,0.014844858
861.73,0.015280687
862.7,0.015676343
863.66,0.016054754
864.63,0.016461524
865.59,0.016929039
866.56,0.01741073
867.52,0.017838898
868.48,0.018208078
869.45,0.018569277
870.41,0.018975156
871.38,0.01938585
872.34,0.019832146
873.3,0.020334823
874.27,0.020848119
875.23,0.021342233
876.2,0.021817686
877.16,0.022284845
878.13,0.02273322
879.09,0.023189828
880.05,0.023679099
881.02,0.024177395
881.98,0.02465249
882.95,0.025104981
883.91,0.025569262
884.88,0.026085634
885.84,0.026606698
886.8,0.027143867
887.77,0.027694221
888.73,0.028241656
889.7,0.028776057
890.66,0.029299943
891.63,0.029814464
892.59,0.030333447
893.55,0.030853735
894.52,0.031390891
895.48,0.031968903
896.45,0.032597921
897.41,0.033267938
898.37,0.033914941
899.34,0.034506957
900.3,0.035058047
901.27,0.035565196
902.23,0.036069277
903.2,0.036595958
904.16,0.037131283
905.12,0.037606522
906.09,0.038043091
907.05,0.038487683
908.02,0.038947552
908.98,0.039427083
909.95,0.039916235
910.91,0.040390347
911.87,0.04083286
912.84,0.041307819
913.8,0.041862956
914.77,0.042429733
915.73,0.042962448
916.7,0.043461744
917.66,0.043946015
918.62,0.044406015
919.59,0.044824641
920.55,0.045229902
921.52,0.045650251
922.48,0.046100615
923.45,0.046590034
924.41,0.047121336
925.37,0.047695311
926.34,0.048280973
927.3,0.048794384
928.27,0.049228257
929.23,0.049640833
930.19,0.050079948
931.16,0.050538828
932.12,0.050950092
933.09,0.0512613
934.05,0.051536546
935.02,0.051825239
935.98,0.052149651
936.94,0.05253486
937.91,0.052973782
938.87,0.053412973
939.84,0.053785467
940.8,0.054083523
941.77,0.054386745
942.73,0.054675929
943.69,0.054923238
944.66,0.055141388
945.62,0.055361029
946.59,0.055616518
947.55,0.055912204
948.52,0.056227748
949.48,0.056475751
950.44,0.056634665
951.41,0.056743301
952.37,0.056871754
953.34,0.057076897
954.3,0.057367973
955.26,0.057620411
956.23,0.057721963
957.19,0.057709642
958.16,0.057669033
959.12,0.057678989
960.09,0.057782543
961.05,0.057934883
962.01,0.058033797
962.98,0.058011193
963.94,0.057950233
964.91,0.057916537
965.87,0.057925766
966.84,0.057945827
967.8,0.057929751
968.76,0.05784013
969.73,0.057746693
970.69,0.057754972
971.66,0.057790922
972.62,0.057779851
973.59,0.057708363
974.55,0.057602104
975.51,0.057495427
976.48,0.057397514
977.44,0.057315367
978.41,0.057248411
979.37,0.057167685
980.33,0.057044185
981.3,0.056863404
982.26,0.056668746
983.23,0.056554873
984.19,0.056457108
985.16,0.056237805
986.12,0.056053633
987.08,0.055941392
988.05,0.055840367
989.01,0.055705845
989.98,0.055569409
990.94,0.055453284
991.91,0.055313754
992.87,0.0551601
993.83,0.055018877
994.8,0.054914595
995.76,0.054828687
996.73,0.054704135
997.69,0.054474352
998.66,0.054224797
999.62,0.054158805
1000.58,0.054153458
1001.55,0.054144066
1002.51,0.05414932
1003.48,0.054168019
1004.44,0.05415773
1005.41,0.054125842
1006.37,0.054132523
1007.33,0.054163449
1008.3,0.054205761
1009.26,0.054251759
1010.23,0.054309427
1011.19,0.054392885
1012.15,0.054524992
1013.12,0.054697759
1014.08,0.054872337
1015.05,0.055094202
1016.01,0.055406977
1016.98,0.055712168
1017.94,0.055899151
1018.9,0.055975318
1019.87,0.056069839
1020.83,0.056297911
1021.8,0.05666096
1022.76,0.057066551
1023.73,0.05748062
1024.69,0.057860958
1025.65,0.058190409
1026.62,0.058485248
1027.58,0.058804686
1028.55,0.059211101
1029.51,0.059676273
1030.48,0.060122807
1031.44,0.060506191
1032.4,0.060867691
1033.37,0.06128256
1034.33,0.061797604
1035.3,0.062389233
1036.26,0.062954274
1037.23,0.063464097
1038.19,0.063963021
1039.15,0.064499264
1040.12,0.065046773
1041.08,0.065548626
1042.05,0.065958366
1043.01,0.066308472
1043.97,0.066693687
1044.94,0.067167824
1045.9,0.067697343
1046.87,0.068226458
1047.83,0.068686608
1048.8,0.069060728
1049.76,0.069383616
1050.72,0.06974437
1051.69,0.070178501
1052.65,0.070640249
1053.62,0.071076111
1054.58,0.071467539
1055.55,0.071834955
1056.51,0.07218844
1057.47,0.072537674
1058.44,0.072890758
1059.4,0.073213205
1060.37,0.073419996
1061.33,0.073527732
1062.3,0.073622344
1063.26,0.073774885
1064.22,0.073993496
1065.19,0.074239239
1066.15,0.074479778
1067.12,0.074650519
1068.08,0.074702639
1069.04,0.074690816
1070.01,0.074658126
1070.97,0.07463854
1071.94,0.07462224
1072.9,0.074542802
1073.87,0.074337753
1074.83,0.074028729
1075.79,0.073692839
1076.76,0.073365967
1077.72,0.073044972
1078.69,0.072733044
1079.65,0.072436404
1080.62,0.07212299
1081.58,0.07174781
1082.54,0.071357202
1083.51,0.071115402
1084.47,0.070925326
1085.44,0.070626682
1086.4,0.070157541
1087.37,0.069533001
1088.33,0.068826196
1089.29,0.068127593
1090.26,0.067515172
1091.22,0.066961165
1092.19,0.066408979
1093.15,0.065869242
1094.11,0.065311098
1095.08,0.064676679
1096.04,0.06392025
1097.01,0.063074693
1097.97,0.062250612
1098.94,0.061516208
1099.9,0.06086765
1100.86,0.060263949
1101.83,0.059602908
1102.79,0.058819188
1103.76,0.057915725
1104.72,0.056970224
1105.69,0.056059962
1106.65,0.055228515
1107.61,0.054457006
1108.58,0.053714037
1109.54,0.05297365
1110.51,0.052222184
1111.47,0.051448449
1112.44,0.050648342
1113.4,0.049806153
1114.36,0.048904625
1115.33,0.04800631
1116.29,0.04721813
1117.26,0.046533537
1118.22,0.045914716
1119.18,0.045294196
1120.15,0.044604924
1121.11,0.043818248
1122.08,0.042979662
1123.04,0.042181491
1124.01,0.041485384
1124.97,0.040825072
1125.93,0.040125319
1126.9,0.03934317
1127.86,0.038500764
1128.83,0.037677166
1129.79,0.03694267
1130.76,0.036288
1131.72,0.035636761
1132.68,0.035011805
1133.65,0.034408764
1134.61,0.033750597
1135.58,0.033032274
1136.54,0.032301717
1137.51,0.031600608
1138.47,0.03091807
1139.43,0.030264799
1140.4,0.029659215
1141.36,0.029077651
1142.33,0.028492521
1143.29,0.02790807
1144.25,0.027325147
1145.22,0.02673605
1146.18,0.026124381
1147.15,0.025537679
1148.11,0.024972678
1149.08,0.02438583
1150.04,0.023818256
1151,0.023259822
1151.97,0.022684654
1152.93,0.022108032
1153.9,0.021566792
1154.86,0.021068582
1155.83,0.02057198
1156.79,0.020050599
1157.75,0.019517565
1158.72,0.018978193
1159.68,0.018434901
1160.65,0.017919397
1161.61,0.017457889
1162.58,0.01705076
1163.54,0.016629439
1164.5,0.016135906
1165.47,0.015644006
1166.43,0.015193256
1167.4,0.014744229
1168.36,0.014280859
1169.32,0.013816483
1170.29,0.01336708
1171.25,0.012935219
1172.22,0.01252641
1173.18,0.012175305
1174.15,0.011860752
1175.11,0.011526797
1176.07,0.01115737
1177.04,0.010773724
1178,0.010399953
1178.97,0.010057533
1179.93,0.009733162
1180.9,0.009397313
1181.86,0.009068788
1182.82,0.008750331
1183.79,0.008401498
1184.75,0.008041113
1185.72,0.00770152
1186.68,0.007407195
1187.65,0.007150084
1188.61,0.006906
1189.57,0.00666137
1190.54,0.006397144
1191.5,0.006116057
1192.47,0.005845214
1193.43,0.005595606
1194.4,0.005361752
1195.36,0.0051411
1196.32,0.004933618
1197.29,0.004739287
1198.25,0.004525436
1199.22,0.004283607
1200.18,0.004082516
1201.14,0.003930388
1202.11,0.003780619
1203.07,0.003594794
1204.04,0.003389193
1205,0.003213573
1205.97,0.003103741
1206.93,0.003024128
1207.89,0.002866882
1208.86,0.002615035
1209.82,0.002440354
1210.79,0.002367882
1211.75,0.002320325
1212.72,0.002250313
1213.68,0.002152387
1214.64,0.002015222
1215.61,0.001841398
1216.57,0.001678461
1217.54,0.00157656
1218.5,0.001505307
1219.47,0.001433782
1220.43,0.001359389
1221.39,0.001296049
1222.36,0.001252117
1223.32,0.001202557
1224.29,0.001110534
1225.25,0.00098178
1226.21,0.000895053
1227.18,0.000839081
1228.14,0.000783084
1229.11,0.000724009
1230.07,0.000673403
1231.04,0.00065658
1232,0.00067104
1232.96,0.000657097
1233.93,0.000577577
1234.89,0.000486603
1235.86,0.00046655
1236.82,0.000475075
1237.79,0.000452072
1238.75,0.000386242
1239.71,0.000325981
1240.68,0.000311284
1241.64,0.000325326
1242.61,0.000313424
1243.57,0.000272871
1244.54,0.000249346
1245.5,0.000234513
1246.46,0.00022251
1247.43,0.000195914
1248.39,0.000163595
1249.36,0.000139734
1250.32,0.000130396
1251.28,0.000129705
1252.25,0.000134661
1253.21,0.000145538
1254.18,0.000144667
1255.14,0.000129365
1256.11,9.93294E-05
1257.07,5.1862E-05
1258.03,1.01117E-05
1259,1.19114E-05
1259.96,4.59676E-05
1260.93,7.11631E-05
1261.89,8.18806E-05
1262.86,0.00011005
1263.82,0.000164789
1264.78,0.000213742
1265.75,0.000224426
1266.71,0.000211703
1267.68,0.000210581
1268.64,0.000239051
1269.61,0.000282179
1270.57,0.000307781
1271.53,0.000309755
1272.5,0.000320458
1273.46,0.000337219
1274.43,0.000347928
1275.39,0.000352833
1276.35,0.000366643
1277.32,0.000416015
1278.28,0.000480488
1279.25,0.000494265
1280.21,0.000421666
1281.18,0.000375644
1282.14,0.000437259
1283.1,0.00054086
1284.07,0.0006505
1285.03,0.000748475
1286,0.000807479
1286.96,0.000827659
1287.93,0.000829679
1288.89,0.000876966
1289.85,0.000975537
1290.82,0.001043991
1291.78,0.001055338
1292.75,0.0010877
1293.71,0.00117468
1294.68,0.001273783
1295.64,0.001336827
1296.6,0.001369641
1297.57,0.001408436
1298.53,0.001480845
1299.5,0.001574539
1300.46,0.00166548
1301.42,0.001741335
1302.39,0.001795828
1303.35,0.00183221
1304.32,0.001871568
1305.28,0.001935587
1306.25,0.002027147
1307.21,0.002094464
1308.17,0.002097445
1309.14,0.002106424
1310.1,0.002180094
1311.07,0.002266069
1312.03,0.002343071
1313,0.00243241
1313.96,0.002534369
1314.92,0.002627232
1315.89,0.002738682
1316.85,0.002881405
1317.82,0.003036648
1318.78,0.003120971
1319.75,0.003112155
1320.71,0.003150021
1321.67,0.003262634
1322.64,0.00336282
1323.6,0.003425919
1324.57,0.003476504
1325.53,0.003514813
1326.5,0.003549913
1327.46,0.003603965
1328.42,0.003695658
1329.39,0.003796771
1330.35,0.003879369
1331.32,0.003952579
1332.28,0.004016549
1333.24,0.004086958
1334.21,0.004173061
1335.17,0.004265742
1336.14,0.004349013
1337.1,0.00439778
1338.07,0.004405392
1339.03,0.004428947
1339.99,0.004522217
1340.96,0.004624991
1341.92,0.004674155
1342.89,0.00469782
1343.85,0.004715309
1344.82,0.004742194
1345.78,0.004807459
1346.74,0.004920661
1347.71,0.005049882
1348.67,0.005141121
1349.64,0.005194017
1350.6,0.005253484
1351.57,0.005338571
1352.53,0.005407889
1353.49,0.00542274
1354.46,0.005418198
1355.42,0.005429825
1356.39,0.005460635
1357.35,0.00551093
1358.31,0.005590331
1359.28,0.00566328
1360.24,0.005700897
1361.21,0.005738471
1362.17,0.005811781
1363.14,0.005911031
1364.1,0.005997593
1365.06,0.006058312
1366.03,0.00609626
1366.99,0.00610511
1367.96,0.006100846
1368.92,0.006122698
1369.89,0.006190095
1370.85,0.006254449
1371.81,0.006305847
1372.78,0.006353927
1373.74,0.006421826
1374.71,0.006489709
1375.67,0.006521743
1376.64,0.006520873
1377.6,0.00651681
1378.56,0.006529138
1379.53,0.006561124
1380.49,0.006606439
1381.46,0.006658255
1382.42,0.006693792
1383.38,0.006709533
1384.35,0.006698742
1385.31,0.006641659
1386.28,0.006587672
1387.24,0.006590009
1388.21,0.006648654
1389.17,0.006704179
1390.13,0.006746466
1391.1,0.006775408
1392.06,0.006804464
1393.03,0.006843463
1393.99,0.006889267
1394.96,0.006928365
1395.92,0.006940882
1396.88,0.006923265
1397.85,0.006888725
1398.81,0.00684084
1399.78,0.0067793
1400.74,0.006761366
1401.71,0.006790348
1402.67,0.006792562
1403.63,0.006747624
1404.6,0.006722647
1405.56,0.006768603
1406.53,0.006855019
1407.49,0.006914647
1408.45,0.006920214
1409.42,0.006908747
1410.38,0.0069143
1411.35,0.006929893
1412.31,0.006938819
1413.28,0.006947614
1414.24,0.006908932
1415.2,0.006778214
1416.17,0.00670504
1417.13,0.006764852
1418.1,0.006869003
1419.06,0.006935888
1420.03,0.006951411
1420.99,0.006970515
1421.95,0.007013629
1422.92,0.007036061
1423.88,0.006972853
1424.85,0.00687159
1425.81,0.006839016
1426.78,0.0068613
1427.74,0.006911283
1428.7,0.006971691
1429.67,0.007018287
1430.63,0.007054669
1431.6,0.007087508
1432.56,0.007085934
1433.52,0.007011615
1434.49,0.006961242
1435.45,0.006969899
1436.42,0.006995784
1437.38,0.007042671
1438.35,0.007099928
1439.31,0.007146939
1440.27,0.007176635
1441.24,0.007202708
1442.2,0.007232418
1443.17,0.007279539
1444.13,0.007358323
1445.1,0.007451101
1446.06,0.007484607
1447.02,0.007433954
1447.99,0.007407633
1448.95,0.007427037
1449.92,0.007449877
1450.88,0.007448217
1451.85,0.007446403
1452.81,0.007486995
1453.77,0.007570002
1454.74,0.00763181
1455.7,0.007609009
1456.67,0.007529398
1457.63,0.007513496
1458.59,0.007586143
1459.56,0.007619774
1460.52,0.007596743
1461.49,0.007562892
1462.45,0.007529044
1463.42,0.007495017
1464.38,0.007485977
1465.34,0.007501881
1466.31,0.007499808
1467.27,0.007462099
1468.24,0.007424204
1469.2,0.007397083
1470.17,0.007366174
1471.13,0.007310213
1472.09,0.007239824
1473.06,0.00717271
1474.02,0.007112809
1474.99,0.007031015
1475.95,0.00691324
1476.92,0.00678785
1477.88,0.006738155
1478.84,0.006749755
1479.81,0.006696117
1480.77,0.006537623
1481.74,0.0063751
1482.7,0.006270391
1483.67,0.006190682
1484.63,0.006114655
1485.59,0.006023918
1486.56,0.005918304
1487.52,0.005801744
1488.49,0.005688449
1489.45,0.005575081
1490.41,0.005454209
1491.38,0.005354902
1492.34,0.005321316
1493.31,0.005261917
1494.27,0.005100042
1495.24,0.004941333
1496.2,0.004819201
1497.16,0.004704196
1498.13,0.004574106
1499.09,0.004451321
1500.06,0.004353868
1501.02,0.004278529
1501.99,0.00419922
1502.95,0.004094042
1503.91,0.00396655
1504.88,0.003857132
1505.84,0.003788376
1506.81,0.003693415
1507.77,0.003520595
1508.74,0.00338439
1509.7,0.003329816
1510.66,0.003301152
1511.63,0.003264809
1512.59,0.003217405
1513.56,0.003147372
1514.52,0.003040097
1515.48,0.002921433
1516.45,0.002802369
1517.41,0.002690756
1518.38,0.002604953
1519.34,0.002556637
1520.31,0.002489293
1521.27,0.002384503
1522.23,0.002294543
1523.2,0.002249329
1524.16,0.00221551
1525.13,0.002158842
1526.09,0.002083426
1527.06,0.001985046
1528.02,0.001871594
1528.98,0.001780609
1529.95,0.001749756
1530.91,0.001753106
1531.88,0.001733526
1532.84,0.00170274
1533.81,0.00167169
1534.77,0.001633192
1535.73,0.001575621
1536.7,0.001483509
1537.66,0.001383828
1538.63,0.001310435
1539.59,0.001256187
1540.55,0.001209476
1541.52,0.001154829
1542.48,0.001100299
1543.45,0.001072248
1544.41,0.001040523
1545.38,0.000966366
1546.34,0.000884621
1547.3,0.000883361
1548.27,0.000966428
1549.23,0.001045996
1550.2,0.001060046
1551.16,0.001062771
1552.13,0.00118096
1553.09,0.001399895
1554.05,0.001611474
1555.02,0.001850258
1555.98,0.001927156
1556.95,0.001682583
1557.91,0.001348664
1558.88,0.001044996
1559.84,0.000783731
1560.8,0.000568644
1561.77,0.000411306
1562.73,0.000320078
1563.7,0.000306377
1564.66,0.000316265
1565.62,0.000291052
1566.59,0.00023824
1567.55,0.000232459
1568.52,0.000296853
1569.48,0.00030677
1570.45,0.000183263
1571.41,6.36933E-05
1572.37,6.71889E-06
1573.34,-3.44142E-06
1574.3,3.77146E-05
1575.27,0.000102321
1576.23,0.000127884
1577.2,9.4145E-05
1578.16,4.08536E-05
1579.12,7.2132E-06
1580.09,-1.48573E-05
1581.05,-3.27818E-05
1582.02,-5.88791E-05
1582.98,-4.91412E-05
1583.95,5.55295E-05
1584.91,9.7122E-05
1585.87,-8.13992E-06
1586.84,-0.000121754
1587.8,-0.000155775
1588.77,-0.000146292
1589.73,-0.000144529
1590.69,-0.000150736
1591.66,-0.000137228
1592.62,-9.15118E-05
1593.59,-4.59481E-05
1594.55,-5.6087E-05
1595.52,-0.000118526
1596.48,-0.000132745
1597.44,-4.27052E-05
1598.41,-9.13792E-07
1599.37,-4.31859E-05
