20.006465140 64.0
20.019595423 62.0
20.032725705 64.0
20.045855988 64.0
20.058986271 67.0
20.072116553 60.0
20.085246836 79.0
20.098377119 66.0
20.111507401 62.0
20.124637684 60.0
20.137767967 71.0
20.150898249 60.0
20.164028532 65.0
20.177158815 60.0
20.190289097 62.0
20.203419380 59.0
20.216549663 69.0
20.229679946 73.0
20.242810228 67.0
20.255940511 59.0
20.269070794 65.0
20.282201076 77.0
20.295331359 65.0
20.308461642 66.0
20.321591924 66.0
20.334722207 59.0
20.347852490 56.0
20.360982772 64.0
20.374113055 66.0
20.387243338 59.0
20.400373620 74.0
20.413503903 62.0
20.426634186 57.0
20.439764468 55.0
20.452894751 60.0
20.466025034 58.0
20.479155316 59.0
20.492285599 59.0
20.505415882 71.0
20.518546164 73.0
20.531676447 54.0
20.544806730 72.0
20.557937012 68.0
20.571067295 57.0
20.584197578 66.0
20.597327860 70.0
20.610458143 59.0
20.623588426 56.0
20.636718708 72.0
20.649848991 60.0
20.662979274 68.0
20.676109557 71.0
20.689239839 65.0
20.702370122 66.0
20.715500405 55.0
20.728630687 56.0
20.741760970 42.0
20.754891253 74.0
20.768021535 59.0
20.781151818 59.0
20.794282101 72.0
20.807412383 69.0
20.820542666 70.0
20.833672949 61.0
20.846803231 60.0
20.859933514 62.0
20.873063797 61.0
20.886194079 53.0
20.899324362 65.0
20.912454645 64.0
20.925584927 71.0
20.938715210 66.0
20.951845493 59.0
20.964975775 58.0
20.978106058 62.0
20.991236341 58.0
21.004366623 53.0
21.017496906 68.0
21.030627189 64.0
21.043757471 71.0
21.056887754 68.0
21.070018037 66.0
21.083148319 63.0
21.096278602 67.0
21.109408885 65.0
21.122539168 58.0
21.135669450 57.0
21.148799733 56.0
21.161930016 63.0
21.175060298 56.0
21.188190581 61.0
21.201320864 50.0
21.214451146 60.0
21.227581429 61.0
21.240711712 69.0
21.253841994 72.0
21.266972277 70.0
21.280102560 75.0
21.293232842 68.0
21.306363125 44.0
21.319493408 60.0
21.332623690 65.0
21.345753973 55.0
21.358884256 75.0
21.372014538 47.0
21.385144821 49.0
21.398275104 56.0
21.411405386 68.0
21.424535669 67.0
21.437665952 44.0
21.450796234 65.0
21.463926517 62.0
21.477056800 51.0
21.490187082 68.0
21.503317365 55.0
21.516447648 41.0
21.529577930 50.0
21.542708213 60.0
21.555838496 59.0
21.568968779 61.0
21.582099061 65.0
21.595229344 52.0
21.608359627 63.0
21.621489909 52.0
21.634620192 52.0
21.647750475 61.0
21.660880757 65.0
21.674011040 68.0
21.687141323 73.0
21.700271605 62.0
21.713401888 55.0
21.726532171 63.0
21.739662453 70.0
21.752792736 80.0
21.765923019 76.0
21.779053301 55.0
21.792183584 65.0
21.805313867 65.0
21.818444149 64.0
21.831574432 53.0
21.844704715 65.0
21.857834997 66.0
21.870965280 66.0
21.884095563 53.0
21.897225845 60.0
21.910356128 73.0
21.923486411 57.0
21.936616693 64.0
21.949746976 62.0
21.962877259 56.0
21.976007541 64.0
21.989137824 52.0
22.002268107 62.0
22.015398390 65.0
22.028528672 57.0
22.041658955 60.0
22.054789238 56.0
22.067919520 65.0
22.081049803 59.0
22.094180086 64.0
22.107310368 69.0
22.120440651 66.0
22.133570934 67.0
22.146701216 62.0
22.159831499 60.0
22.172961782 62.0
22.186092064 61.0
22.199222347 67.0
22.212352630 53.0
22.225482912 55.0
22.238613195 60.0
22.251743478 61.0
22.264873760 59.0
22.278004043 58.0
22.291134326 54.0
22.304264608 68.0
22.317394891 52.0
22.330525174 68.0
22.343655456 52.0
22.356785739 72.0
22.369916022 68.0
22.383046304 59.0
22.396176587 50.0
22.409306870 63.0
22.422437153 63.0
22.435567435 60.0
22.448697718 65.0
22.461828001 65.0
22.474958283 56.0
22.488088566 59.0
22.501218849 62.0
22.514349131 77.0
22.527479414 45.0
22.540609697 68.0
22.553739979 73.0
22.566870262 64.0
22.580000545 76.0
22.593130827 66.0
22.606261110 60.0
22.619391393 53.0
22.632521675 61.0
22.645651958 59.0
22.658782241 65.0
22.671912523 48.0
22.685042806 64.0
22.698173089 67.0
22.711303371 63.0
22.724433654 65.0
22.737563937 57.0
22.750694219 59.0
22.763824502 62.0
22.776954785 58.0
22.790085067 59.0
22.803215350 55.0
22.816345633 61.0
22.829475915 63.0
22.842606198 52.0
22.855736481 57.0
22.868866764 65.0
22.881997046 67.0
22.895127329 67.0
22.908257612 48.0
22.921387894 52.0
22.934518177 58.0
22.947648460 71.0
22.960778742 46.0
22.973909025 47.0
22.987039308 62.0
23.000169590 67.0
23.013299873 58.0
23.026430156 45.0
23.039560438 69.0
23.052690721 63.0
23.065821004 58.0
23.078951286 56.0
23.092081569 42.0
23.105211852 77.0
23.118342134 64.0
23.131472417 46.0
23.144602700 59.0
23.157732982 52.0
23.170863265 54.0
23.183993548 63.0
23.197123830 53.0
23.210254113 62.0
23.223384396 55.0
23.236514678 52.0
23.249644961 40.0
23.262775244 53.0
23.275905526 61.0
23.289035809 63.0
23.302166092 67.0
23.315296375 60.0
23.328426657 65.0
23.341556940 72.0
23.354687223 62.0
23.367817505 60.0
23.380947788 51.0
23.394078071 59.0
23.407208353 60.0
23.420338636 60.0
23.433468919 58.0
23.446599201 51.0
23.459729484 63.0
23.472859767 48.0
23.485990049 51.0
23.499120332 53.0
23.512250615 47.0
23.525380897 50.0
23.538511180 52.0
23.551641463 57.0
23.564771745 51.0
23.577902028 54.0
23.591032311 44.0
23.604162593 58.0
23.617292876 63.0
23.630423159 64.0
23.643553441 54.0
23.656683724 52.0
23.669814007 48.0
23.682944289 57.0
23.696074572 64.0
23.709204855 65.0
23.722335137 52.0
23.735465420 63.0
23.748595703 68.0
23.761725986 52.0
23.774856268 58.0
23.787986551 51.0
23.801116834 47.0
23.814247116 41.0
23.827377399 65.0
23.840507682 65.0
23.853637964 54.0
23.866768247 58.0
23.879898530 54.0
23.893028812 58.0
23.906159095 68.0
23.919289378 63.0
23.932419660 59.0
23.945549943 53.0
23.958680226 71.0
23.971810508 37.0
23.984940791 46.0
23.998071074 55.0
24.011201356 37.0
24.024331639 41.0
24.037461922 65.0
24.050592204 55.0
24.063722487 62.0
24.076852770 58.0
24.089983052 67.0
24.103113335 60.0
24.116243618 53.0
24.129373900 46.0
24.142504183 53.0
24.155634466 40.0
24.168764748 39.0
24.181895031 42.0
24.195025314 65.0
24.208155597 38.0
24.221285879 47.0
24.234416162 50.0
24.247546445 48.0
24.260676727 41.0
24.273807010 52.0
24.286937293 53.0
24.300067575 66.0
24.313197858 56.0
24.326328141 45.0
24.339458423 53.0
24.352588706 59.0
24.365718989 43.0
24.378849271 50.0
24.391979554 56.0
24.405109837 61.0
24.418240119 58.0
24.431370402 58.0
24.444500685 54.0
24.457630967 40.0
24.470761250 53.0
24.483891533 57.0
24.497021815 37.0
24.510152098 50.0
24.523282381 53.0
24.536412663 53.0
24.549542946 59.0
24.562673229 45.0
24.575803511 55.0
24.588933794 60.0
24.602064077 58.0
24.615194360 60.0
24.628324642 53.0
24.641454925 55.0
24.654585208 58.0
24.667715490 60.0
24.680845773 64.0
24.693976056 55.0
24.707106338 59.0
24.720236621 53.0
24.733366904 66.0
24.746497186 54.0
24.759627469 48.0
24.772757752 62.0
24.785888034 64.0
24.799018317 62.0
24.812148600 69.0
24.825278882 62.0
24.838409165 41.0
24.851539448 64.0
24.864669730 53.0
24.877800013 56.0
24.890930296 48.0
24.904060578 40.0
24.917190861 48.0
24.930321144 42.0
24.943451426 71.0
24.956581709 59.0
24.969711992 52.0
24.982842274 49.0
24.995972557 42.0
25.009102840 53.0
25.022233122 61.0
25.035363405 61.0
25.048493688 61.0
25.061623971 59.0
25.074754253 40.0
25.087884536 52.0
25.101014819 52.0
25.114145101 40.0
25.127275384 46.0
25.140405667 55.0
25.153535949 52.0
25.166666232 49.0
25.179796515 44.0
25.192926797 54.0
25.206057080 48.0
25.219187363 56.0
25.232317645 53.0
25.245447928 46.0
25.258578211 63.0
25.271708493 58.0
25.284838776 61.0
25.297969059 61.0
25.311099341 55.0
25.324229624 56.0
25.337359907 69.0
25.350490189 65.0
25.363620472 63.0
25.376750755 55.0
25.389881037 64.0
25.403011320 66.0
25.416141603 51.0
25.429271885 58.0
25.442402168 75.0
25.455532451 50.0
25.468662733 67.0
25.481793016 54.0
25.494923299 66.0
25.508053582 61.0
25.521183864 51.0
25.534314147 68.0
25.547444430 64.0
25.560574712 81.0
25.573704995 84.0
25.586835278 92.0
25.599965560 87.0
25.613095843 93.0
25.626226126 116.0
25.639356408 122.0
25.652486691 125.0
25.665616974 105.0
25.678747256 138.0
25.691877539 120.0
25.705007822 134.0
25.718138104 155.0
25.731268387 134.0
25.744398670 150.0
25.757528952 153.0
25.770659235 151.0
25.783789518 170.0
25.796919800 152.0
25.810050083 171.0
25.823180366 196.0
25.836310648 187.0
25.849440931 196.0
25.862571214 209.0
25.875701496 218.0
25.888831779 204.0
25.901962062 210.0
25.915092344 188.0
25.928222627 157.0
25.941352910 118.0
25.954483193 118.0
25.967613475 105.0
25.980743758 98.0
25.993874041 81.0
26.007004323 64.0
26.020134606 59.0
26.033264889 68.0
26.046395171 48.0
26.059525454 63.0
26.072655737 47.0
26.085786019 43.0
26.098916302 53.0
26.112046585 55.0
26.125176867 57.0
26.138307150 70.0
26.151437433 59.0
26.164567715 49.0
26.177697998 49.0
26.190828281 48.0
26.203958563 61.0
26.217088846 41.0
26.230219129 44.0
26.243349411 57.0
26.256479694 40.0
26.269609977 54.0
26.282740259 49.0
26.295870542 56.0
26.309000825 61.0
26.322131107 46.0
26.335261390 58.0
26.348391673 51.0
26.361521955 58.0
26.374652238 38.0
26.387782521 57.0
26.400912804 48.0
26.414043086 48.0
26.427173369 43.0
26.440303652 50.0
26.453433934 49.0
26.466564217 47.0
26.479694500 44.0
26.492824782 50.0
26.505955065 54.0
26.519085348 52.0
26.532215630 47.0
26.545345913 52.0
26.558476196 52.0
26.571606478 41.0
26.584736761 40.0
26.597867044 40.0
26.610997326 51.0
26.624127609 47.0
26.637257892 49.0
26.650388174 55.0
26.663518457 57.0
26.676648740 50.0
26.689779022 54.0
26.702909305 38.0
26.716039588 45.0
26.729169870 39.0
26.742300153 53.0
26.755430436 50.0
26.768560718 35.0
26.781691001 58.0
26.794821284 58.0
26.807951567 53.0
26.821081849 43.0
26.834212132 50.0
26.847342415 41.0
26.860472697 50.0
26.873602980 42.0
26.886733263 53.0
26.899863545 48.0
26.912993828 48.0
26.926124111 49.0
26.939254393 42.0
26.952384676 47.0
26.965514959 55.0
26.978645241 43.0
26.991775524 45.0
27.004905807 47.0
27.018036089 35.0
27.031166372 49.0
27.044296655 57.0
27.057426937 58.0
27.070557220 49.0
27.083687503 41.0
27.096817785 47.0
27.109948068 58.0
27.123078351 40.0
27.136208633 62.0
27.149338916 38.0
27.162469199 44.0
27.175599481 51.0
27.188729764 46.0
27.201860047 37.0
27.214990329 50.0
27.228120612 58.0
27.241250895 44.0
27.254381178 49.0
27.267511460 43.0
27.280641743 55.0
27.293772026 61.0
27.306902308 46.0
27.320032591 52.0
27.333162874 42.0
27.346293156 40.0
27.359423439 38.0
27.372553722 43.0
27.385684004 53.0
27.398814287 39.0
27.411944570 50.0
27.425074852 39.0
27.438205135 45.0
27.451335418 52.0
27.464465700 63.0
27.477595983 60.0
27.490726266 44.0
27.503856548 45.0
27.516986831 56.0
27.530117114 45.0
27.543247396 43.0
27.556377679 42.0
27.569507962 54.0
27.582638244 47.0
27.595768527 57.0
27.608898810 41.0
27.622029092 44.0
27.635159375 48.0
27.648289658 53.0
27.661419940 40.0
27.674550223 46.0
27.687680506 55.0
27.700810789 64.0
27.713941071 37.0
27.727071354 53.0
27.740201637 57.0
27.753331919 61.0
27.766462202 37.0
27.779592485 45.0
27.792722767 45.0
27.805853050 48.0
27.818983333 31.0
27.832113615 48.0
27.845243898 48.0
27.858374181 46.0
27.871504463 37.0
27.884634746 45.0
27.897765029 45.0
27.910895311 45.0
27.924025594 46.0
27.937155877 40.0
27.950286159 45.0
27.963416442 53.0
27.976546725 34.0
27.989677007 35.0
28.002807290 51.0
28.015937573 41.0
28.029067855 41.0
28.042198138 51.0
28.055328421 44.0
28.068458703 49.0
28.081588986 56.0
28.094719269 39.0
28.107849551 27.0
28.120979834 37.0
28.134110117 72.0
28.147240400 42.0
28.160370682 38.0
28.173500965 38.0
28.186631248 52.0
28.199761530 58.0
28.212891813 43.0
28.226022096 51.0
28.239152378 41.0
28.252282661 39.0
28.265412944 42.0
28.278543226 34.0
28.291673509 55.0
28.304803792 40.0
28.317934074 37.0
28.331064357 49.0
28.344194640 47.0
28.357324922 39.0
28.370455205 65.0
28.383585488 44.0
28.396715770 46.0
28.409846053 46.0
28.422976336 34.0
28.436106618 48.0
28.449236901 53.0
28.462367184 47.0
28.475497466 51.0
28.488627749 50.0
28.501758032 44.0
28.514888314 48.0
28.528018597 52.0
28.541148880 53.0
28.554279162 53.0
28.567409445 55.0
28.580539728 37.0
28.593670011 42.0
28.606800293 36.0
28.619930576 47.0
28.633060859 46.0
28.646191141 41.0
28.659321424 40.0
28.672451707 53.0
28.685581989 52.0
28.698712272 36.0
28.711842555 49.0
28.724972837 52.0
28.738103120 45.0
28.751233403 46.0
28.764363685 45.0
28.777493968 37.0
28.790624251 52.0
28.803754533 48.0
28.816884816 40.0
28.830015099 48.0
28.843145381 48.0
28.856275664 46.0
28.869405947 37.0
28.882536229 42.0
28.895666512 50.0
28.908796795 58.0
28.921927077 43.0
28.935057360 40.0
28.948187643 45.0
28.961317925 57.0
28.974448208 52.0
28.987578491 40.0
29.000708774 42.0
29.013839056 43.0
29.026969339 51.0
29.040099622 47.0
29.053229904 41.0
29.066360187 37.0
29.079490470 39.0
29.092620752 35.0
29.105751035 39.0
29.118881318 36.0
29.132011600 36.0
29.145141883 52.0
29.158272166 41.0
29.171402448 45.0
29.184532731 43.0
29.197663014 43.0
29.210793296 34.0
29.223923579 41.0
29.237053862 37.0
29.250184144 45.0
29.263314427 49.0
29.276444710 34.0
29.289574992 39.0
29.302705275 34.0
29.315835558 29.0
29.328965840 44.0
29.342096123 47.0
29.355226406 51.0
29.368356688 60.0
29.381486971 52.0
29.394617254 29.0
29.407747536 53.0
29.420877819 46.0
29.434008102 50.0
29.447138385 45.0
29.460268667 34.0
29.473398950 39.0
29.486529233 53.0
29.499659515 44.0
29.512789798 43.0
29.525920081 39.0
29.539050363 41.0
29.552180646 36.0
29.565310929 34.0
29.578441211 49.0
29.591571494 41.0
29.604701777 36.0
29.617832059 36.0
29.630962342 40.0
29.644092625 42.0
29.657222907 42.0
29.670353190 41.0
29.683483473 38.0
29.696613755 48.0
29.709744038 36.0
29.722874321 50.0
29.736004603 52.0
29.749134886 40.0
29.762265169 36.0
29.775395451 36.0
29.788525734 34.0
29.801656017 45.0
29.814786299 48.0
29.827916582 35.0
29.841046865 49.0
29.854177147 51.0
29.867307430 39.0
29.880437713 48.0
29.893567996 42.0
29.906698278 34.0
29.919828561 52.0
29.932958844 37.0
29.946089126 48.0
29.959219409 43.0
29.972349692 37.0
29.985479974 44.0
29.998610257 56.0
30.011740540 40.0
30.024870822 50.0
30.038001105 44.0
30.051131388 32.0
30.064261670 36.0
30.077391953 62.0
30.090522236 43.0
30.103652518 33.0
30.116782801 42.0
30.129913084 35.0
30.143043366 35.0
30.156173649 42.0
30.169303932 53.0
30.182434214 47.0
30.195564497 39.0
30.208694780 54.0
30.221825062 52.0
30.234955345 34.0
30.248085628 47.0
30.261215910 39.0
30.274346193 40.0
30.287476476 37.0
30.300606758 34.0
30.313737041 45.0
30.326867324 43.0
30.339997607 47.0
30.353127889 40.0
30.366258172 44.0
30.379388455 42.0
30.392518737 37.0
30.405649020 37.0
30.418779303 41.0
30.431909585 45.0
30.445039868 49.0
30.458170151 38.0
30.471300433 42.0
30.484430716 36.0
30.497560999 41.0
30.510691281 45.0
30.523821564 40.0
30.536951847 37.0
30.550082129 39.0
30.563212412 45.0
30.576342695 45.0
30.589472977 42.0
30.602603260 50.0
30.615733543 42.0
30.628863825 38.0
30.641994108 37.0
30.655124391 43.0
30.668254673 41.0
30.681384956 38.0
30.694515239 48.0
30.707645521 46.0
30.720775804 42.0
30.733906087 52.0
30.747036369 42.0
30.760166652 32.0
30.773296935 37.0
30.786427218 43.0
30.799557500 44.0
30.812687783 43.0
30.825818066 32.0
30.838948348 35.0
30.852078631 50.0
30.865208914 30.0
30.878339196 44.0
30.891469479 39.0
30.904599762 33.0
30.917730044 53.0
30.930860327 30.0
30.943990610 38.0
30.957120892 33.0
30.970251175 33.0
30.983381458 40.0
30.996511740 37.0
31.009642023 32.0
31.022772306 37.0
31.035902588 47.0
31.049032871 46.0
31.062163154 36.0
31.075293436 44.0
31.088423719 43.0
31.101554002 32.0
31.114684284 38.0
31.127814567 41.0
31.140944850 47.0
31.154075132 40.0
31.167205415 43.0
31.180335698 54.0
31.193465981 51.0
31.206596263 37.0
31.219726546 37.0
31.232856829 30.0
31.245987111 31.0
31.259117394 42.0
31.272247677 32.0
31.285377959 35.0
31.298508242 49.0
31.311638525 29.0
31.324768807 38.0
31.337899090 34.0
31.351029373 33.0
31.364159655 34.0
31.377289938 39.0
31.390420221 48.0
31.403550503 53.0
31.416680786 38.0
31.429811069 42.0
31.442941351 42.0
31.456071634 42.0
31.469201917 46.0
31.482332199 40.0
31.495462482 40.0
31.508592765 38.0
31.521723047 40.0
31.534853330 38.0
31.547983613 38.0
31.561113895 40.0
31.574244178 31.0
31.587374461 38.0
31.600504743 39.0
31.613635026 35.0
31.626765309 33.0
31.639895592 36.0
31.653025874 38.0
31.666156157 35.0
31.679286440 44.0
31.692416722 49.0
31.705547005 43.0
31.718677288 35.0
31.731807570 48.0
31.744937853 49.0
31.758068136 40.0
31.771198418 48.0
31.784328701 37.0
31.797458984 40.0
31.810589266 38.0
31.823719549 37.0
31.836849832 24.0
31.849980114 31.0
31.863110397 42.0
31.876240680 47.0
31.889370962 42.0
31.902501245 36.0
31.915631528 35.0
31.928761810 33.0
31.941892093 51.0
31.955022376 44.0
31.968152658 38.0
31.981282941 32.0
31.994413224 33.0
32.007543506 28.0
32.020673789 25.0
32.033804072 34.0
32.046934354 28.0
32.060064637 42.0
32.073194920 42.0
32.086325203 38.0
32.099455485 40.0
32.112585768 35.0
32.125716051 45.0
32.138846333 40.0
32.151976616 38.0
32.165106899 39.0
32.178237181 37.0
32.191367464 53.0
32.204497747 30.0
32.217628029 31.0
32.230758312 32.0
32.243888595 52.0
32.257018877 49.0
32.270149160 39.0
32.283279443 48.0
32.296409725 47.0
32.309540008 25.0
32.322670291 33.0
32.335800573 42.0
32.348930856 52.0
32.362061139 38.0
32.375191421 37.0
32.388321704 37.0
32.401451987 33.0
32.414582269 36.0
32.427712552 31.0
32.440842835 35.0
32.453973117 46.0
32.467103400 46.0
32.480233683 41.0
32.493363965 32.0
32.506494248 35.0
32.519624531 45.0
32.532754814 30.0
32.545885096 37.0
32.559015379 41.0
32.572145662 37.0
32.585275944 36.0
32.598406227 43.0
32.611536510 35.0
32.624666792 34.0
32.637797075 41.0
32.650927358 57.0
32.664057640 23.0
32.677187923 39.0
32.690318206 50.0
32.703448488 40.0
32.716578771 35.0
32.729709054 35.0
32.742839336 37.0
32.755969619 35.0
32.769099902 38.0
32.782230184 38.0
32.795360467 35.0
32.808490750 34.0
32.821621032 35.0
32.834751315 45.0
32.847881598 31.0
32.861011880 39.0
32.874142163 40.0
32.887272446 46.0
32.900402728 44.0
32.913533011 43.0
32.926663294 45.0
32.939793576 44.0
32.952923859 43.0
32.966054142 44.0
32.979184425 37.0
32.992314707 30.0
33.005444990 41.0
33.018575273 28.0
33.031705555 31.0
33.044835838 41.0
33.057966121 40.0
33.071096403 37.0
33.084226686 40.0
33.097356969 44.0
33.110487251 30.0
33.123617534 43.0
33.136747817 49.0
33.149878099 40.0
33.163008382 46.0
33.176138665 51.0
33.189268947 48.0
33.202399230 32.0
33.215529513 37.0
33.228659795 50.0
33.241790078 50.0
33.254920361 38.0
33.268050643 58.0
33.281180926 44.0
33.294311209 53.0
33.307441491 59.0
33.320571774 54.0
33.333702057 46.0
33.346832339 33.0
33.359962622 38.0
33.373092905 40.0
33.386223188 48.0
33.399353470 45.0
33.412483753 42.0
33.425614036 40.0
33.438744318 36.0
33.451874601 36.0
33.465004884 43.0
33.478135166 34.0
33.491265449 37.0
33.504395732 30.0
33.517526014 38.0
33.530656297 60.0
33.543786580 36.0
33.556916862 48.0
33.570047145 35.0
33.583177428 39.0
33.596307710 35.0
33.609437993 38.0
33.622568276 31.0
33.635698558 34.0
33.648828841 29.0
33.661959124 36.0
33.675089406 39.0
33.688219689 36.0
33.701349972 35.0
33.714480254 44.0
33.727610537 35.0
33.740740820 29.0
33.753871102 27.0
33.767001385 46.0
33.780131668 41.0
33.793261950 52.0
33.806392233 42.0
33.819522516 45.0
33.832652799 44.0
33.845783081 30.0
33.858913364 31.0
33.872043647 38.0
33.885173929 40.0
33.898304212 45.0
33.911434495 33.0
33.924564777 35.0
33.937695060 31.0
33.950825343 30.0
33.963955625 38.0
33.977085908 42.0
33.990216191 26.0
34.003346473 36.0
34.016476756 32.0
34.029607039 38.0
34.042737321 44.0
34.055867604 42.0
34.068997887 31.0
34.082128169 38.0
34.095258452 38.0
34.108388735 42.0
34.121519017 42.0
34.134649300 32.0
34.147779583 34.0
34.160909865 34.0
34.174040148 33.0
34.187170431 35.0
34.200300713 35.0
34.213430996 37.0
34.226561279 46.0
34.239691561 45.0
34.252821844 34.0
34.265952127 32.0
34.279082410 34.0
34.292212692 42.0
34.305342975 38.0
34.318473258 45.0
34.331603540 41.0
34.344733823 35.0
34.357864106 31.0
34.370994388 41.0
34.384124671 34.0
34.397254954 32.0
34.410385236 35.0
34.423515519 38.0
34.436645802 30.0
34.449776084 32.0
34.462906367 26.0
34.476036650 39.0
34.489166932 33.0
34.502297215 27.0
34.515427498 51.0
34.528557780 27.0
34.541688063 36.0
34.554818346 42.0
34.567948628 33.0
34.581078911 39.0
34.594209194 34.0
34.607339476 45.0
34.620469759 48.0
34.633600042 30.0
34.646730324 44.0
34.659860607 34.0
34.672990890 32.0
34.686121172 43.0
34.699251455 34.0
34.712381738 36.0
34.725512021 41.0
34.738642303 35.0
34.751772586 39.0
34.764902869 30.0
34.778033151 34.0
34.791163434 24.0
34.804293717 29.0
34.817423999 27.0
34.830554282 32.0
34.843684565 26.0
34.856814847 45.0
34.869945130 29.0
34.883075413 41.0
34.896205695 34.0
34.909335978 38.0
34.922466261 24.0
34.935596543 35.0
34.948726826 34.0
34.961857109 40.0
34.974987391 37.0
34.988117674 47.0
35.001247957 41.0
35.014378239 54.0
35.027508522 43.0
35.040638805 35.0
35.053769087 39.0
35.066899370 41.0
35.080029653 38.0
35.093159935 33.0
35.106290218 35.0
35.119420501 37.0
35.132550783 25.0
35.145681066 37.0
35.158811349 30.0
35.171941632 31.0
35.185071914 32.0
35.198202197 34.0
35.211332480 34.0
35.224462762 34.0
35.237593045 31.0
35.250723328 31.0
35.263853610 42.0
35.276983893 37.0
35.290114176 24.0
35.303244458 38.0
35.316374741 38.0
35.329505024 35.0
35.342635306 30.0
35.355765589 37.0
35.368895872 52.0
35.382026154 37.0
35.395156437 37.0
35.408286720 40.0
35.421417002 26.0
35.434547285 41.0
35.447677568 34.0
35.460807850 27.0
35.473938133 37.0
35.487068416 30.0
35.500198698 37.0
35.513328981 27.0
35.526459264 30.0
35.539589546 35.0
35.552719829 41.0
35.565850112 43.0
35.578980395 37.0
35.592110677 41.0
35.605240960 41.0
35.618371243 45.0
35.631501525 30.0
35.644631808 43.0
35.657762091 39.0
35.670892373 45.0
35.684022656 23.0
35.697152939 34.0
35.710283221 48.0
35.723413504 35.0
35.736543787 36.0
35.749674069 29.0
35.762804352 29.0
35.775934635 33.0
35.789064917 24.0
35.802195200 50.0
35.815325483 40.0
35.828455765 37.0
35.841586048 44.0
35.854716331 43.0
35.867846613 35.0
35.880976896 34.0
35.894107179 27.0
35.907237461 41.0
35.920367744 44.0
35.933498027 37.0
35.946628309 43.0
35.959758592 39.0
35.972888875 43.0
35.986019157 55.0
35.999149440 45.0
36.012279723 32.0
36.025410006 38.0
36.038540288 35.0
36.051670571 27.0
36.064800854 28.0
36.077931136 49.0
36.091061419 41.0
36.104191702 37.0
36.117321984 46.0
36.130452267 41.0
36.143582550 44.0
36.156712832 27.0
36.169843115 38.0
36.182973398 34.0
36.196103680 41.0
36.209233963 32.0
36.222364246 36.0
36.235494528 32.0
36.248624811 26.0
36.261755094 46.0
36.274885376 41.0
36.288015659 46.0
36.301145942 45.0
36.314276224 50.0
36.327406507 64.0
36.340536790 48.0
36.353667072 62.0
36.366797355 41.0
36.379927638 42.0
36.393057920 62.0
36.406188203 55.0
36.419318486 53.0
36.432448768 63.0
36.445579051 44.0
36.458709334 73.0
36.471839617 63.0
36.484969899 56.0
36.498100182 81.0
36.511230465 69.0
36.524360747 98.0
36.537491030 99.0
36.550621313 81.0
36.563751595 101.0
36.576881878 98.0
36.590012161 118.0
36.603142443 110.0
36.616272726 128.0
36.629403009 171.0
36.642533291 173.0
36.655663574 209.0
36.668793857 231.0
36.681924139 311.0
36.695054422 333.0
36.708184705 435.0
36.721314987 563.0
36.734445270 634.0
36.747575553 726.0
36.760705835 868.0
36.773836118 843.0
36.786966401 902.0
36.800096683 920.0
36.813226966 879.0
36.826357249 925.0
36.839487531 869.0
36.852617814 922.0
36.865748097 838.0
36.878878379 783.0
36.892008662 747.0
36.905138945 663.0
36.918269228 632.0
36.931399510 607.0
36.944529793 574.0
36.957660076 479.0
36.970790358 391.0
36.983920641 355.0
36.997050924 292.0
37.010181206 294.0
37.023311489 245.0
37.036441772 191.0
37.049572054 171.0
37.062702337 142.0
37.075832620 107.0
37.088962902 94.0
37.102093185 92.0
37.115223468 75.0
37.128353750 73.0
37.141484033 68.0
37.154614316 65.0
37.167744598 63.0
37.180874881 51.0
37.194005164 51.0
37.207135446 45.0
37.220265729 62.0
37.233396012 60.0
37.246526294 50.0
37.259656577 38.0
37.272786860 61.0
37.285917142 43.0
37.299047425 41.0
37.312177708 41.0
37.325307990 35.0
37.338438273 43.0
37.351568556 52.0
37.364698839 56.0
37.377829121 33.0
37.390959404 36.0
37.404089687 39.0
37.417219969 38.0
37.430350252 42.0
37.443480535 47.0
37.456610817 30.0
37.469741100 35.0
37.482871383 47.0
37.496001665 39.0
37.509131948 35.0
37.522262231 44.0
37.535392513 37.0
37.548522796 47.0
37.561653079 33.0
37.574783361 26.0
37.587913644 33.0
37.601043927 29.0
37.614174209 38.0
37.627304492 29.0
37.640434775 34.0
37.653565057 41.0
37.666695340 37.0
37.679825623 47.0
37.692955905 32.0
37.706086188 41.0
37.719216471 33.0
37.732346753 47.0
37.745477036 38.0
37.758607319 47.0
37.771737602 35.0
37.784867884 34.0
37.797998167 33.0
37.811128450 34.0
37.824258732 37.0
37.837389015 29.0
37.850519298 40.0
37.863649580 26.0
37.876779863 35.0
37.889910146 37.0
37.903040428 33.0
37.916170711 33.0
37.929300994 24.0
37.942431276 42.0
37.955561559 30.0
37.968691842 46.0
37.981822124 36.0
37.994952407 39.0
38.008082690 36.0
38.021212972 33.0
38.034343255 39.0
38.047473538 47.0
38.060603820 39.0
38.073734103 35.0
38.086864386 32.0
38.099994668 40.0
38.113124951 31.0
38.126255234 42.0
38.139385516 39.0
38.152515799 30.0
38.165646082 42.0
38.178776364 26.0
38.191906647 28.0
38.205036930 40.0
38.218167213 25.0
38.231297495 35.0
38.244427778 35.0
38.257558061 35.0
38.270688343 30.0
38.283818626 40.0
38.296948909 40.0
38.310079191 28.0
38.323209474 37.0
38.336339757 28.0
38.349470039 36.0
38.362600322 32.0
38.375730605 40.0
38.388860887 37.0
38.401991170 26.0
38.415121453 29.0
38.428251735 30.0
38.441382018 35.0
38.454512301 33.0
38.467642583 31.0
38.480772866 27.0
38.493903149 35.0
38.507033431 36.0
38.520163714 35.0
38.533293997 25.0
38.546424279 36.0
38.559554562 34.0
38.572684845 35.0
38.585815127 33.0
38.598945410 39.0
38.612075693 35.0
38.625205975 30.0
38.638336258 26.0
38.651466541 21.0
38.664596824 34.0
38.677727106 30.0
38.690857389 15.0
38.703987672 28.0
38.717117954 30.0
38.730248237 32.0
38.743378520 39.0
38.756508802 13.0
38.769639085 26.0
38.782769368 30.0
38.795899650 38.0
38.809029933 34.0
38.822160216 26.0
38.835290498 28.0
38.848420781 29.0
38.861551064 24.0
38.874681346 35.0
38.887811629 42.0
38.900941912 22.0
38.914072194 27.0
38.927202477 35.0
38.940332760 28.0
38.953463042 42.0
38.966593325 28.0
38.979723608 30.0
38.992853890 34.0
39.005984173 51.0
39.019114456 30.0
39.032244738 27.0
39.045375021 29.0
39.058505304 41.0
39.071635586 20.0
39.084765869 23.0
39.097896152 30.0
39.111026435 31.0
39.124156717 19.0
39.137287000 26.0
39.150417283 32.0
39.163547565 50.0
39.176677848 24.0
39.189808131 38.0
39.202938413 31.0
39.216068696 32.0
39.229198979 43.0
39.242329261 26.0
39.255459544 30.0
39.268589827 34.0
39.281720109 34.0
39.294850392 28.0
39.307980675 24.0
39.321110957 33.0
39.334241240 31.0
39.347371523 26.0
39.360501805 38.0
39.373632088 36.0
39.386762371 35.0
39.399892653 24.0
39.413022936 34.0
39.426153219 26.0
39.439283501 27.0
39.452413784 31.0
39.465544067 25.0
39.478674349 34.0
39.491804632 31.0
39.504934915 22.0
39.518065197 28.0
39.531195480 30.0
39.544325763 20.0
39.557456046 27.0
39.570586328 36.0
39.583716611 27.0
39.596846894 38.0
39.609977176 23.0
39.623107459 33.0
39.636237742 26.0
39.649368024 23.0
39.662498307 26.0
39.675628590 28.0
39.688758872 26.0
39.701889155 36.0
39.715019438 39.0
39.728149720 41.0
39.741280003 36.0
39.754410286 25.0
39.767540568 27.0
39.780670851 23.0
39.793801134 29.0
39.806931416 37.0
39.820061699 35.0
39.833191982 33.0
39.846322264 29.0
39.859452547 41.0
39.872582830 32.0
39.885713112 38.0
39.898843395 37.0
39.911973678 24.0
39.925103960 30.0
39.938234243 25.0
39.951364526 26.0
39.964494809 38.0
39.977625091 28.0
39.990755374 25.0
40.003885657 24.0
40.017015939 23.0
40.030146222 28.0
40.043276505 43.0
40.056406787 26.0
40.069537070 31.0
40.082667353 29.0
40.095797635 36.0
40.108927918 26.0
40.122058201 20.0
40.135188483 31.0
40.148318766 29.0
40.161449049 27.0
40.174579331 25.0
40.187709614 22.0
40.200839897 30.0
40.213970179 45.0
40.227100462 29.0
40.240230745 32.0
40.253361027 33.0
40.266491310 26.0
40.279621593 28.0
40.292751875 31.0
40.305882158 27.0
40.319012441 35.0
40.332142723 22.0
40.345273006 25.0
40.358403289 34.0
40.371533571 19.0
40.384663854 28.0
40.397794137 38.0
40.410924420 31.0
40.424054702 24.0
40.437184985 32.0
40.450315268 35.0
40.463445550 20.0
40.476575833 24.0
40.489706116 33.0
40.502836398 31.0
40.515966681 29.0
40.529096964 29.0
40.542227246 29.0
40.555357529 27.0
40.568487812 27.0
40.581618094 29.0
40.594748377 34.0
40.607878660 30.0
40.621008942 30.0
40.634139225 26.0
40.647269508 19.0
40.660399790 21.0
40.673530073 21.0
40.686660356 39.0
40.699790638 23.0
40.712920921 37.0
40.726051204 33.0
40.739181486 25.0
40.752311769 32.0
40.765442052 29.0
40.778572334 32.0
40.791702617 25.0
40.804832900 27.0
40.817963182 23.0
40.831093465 32.0
40.844223748 37.0
40.857354031 31.0
40.870484313 19.0
40.883614596 27.0
40.896744879 21.0
40.909875161 37.0
40.923005444 32.0
40.936135727 28.0
40.949266009 23.0
40.962396292 39.0
40.975526575 28.0
40.988656857 28.0
41.001787140 42.0
41.014917423 22.0
41.028047705 30.0
41.041177988 26.0
41.054308271 38.0
41.067438553 35.0
41.080568836 32.0
41.093699119 30.0
41.106829401 28.0
41.119959684 29.0
41.133089967 36.0
41.146220249 40.0
41.159350532 24.0
41.172480815 27.0
41.185611097 29.0
41.198741380 25.0
41.211871663 19.0
41.225001945 18.0
41.238132228 25.0
41.251262511 31.0
41.264392793 30.0
41.277523076 19.0
41.290653359 25.0
41.303783642 32.0
41.316913924 25.0
41.330044207 23.0
41.343174490 28.0
41.356304772 23.0
41.369435055 26.0
41.382565338 33.0
41.395695620 25.0
41.408825903 43.0
41.421956186 38.0
41.435086468 30.0
41.448216751 34.0
41.461347034 24.0
41.474477316 30.0
41.487607599 25.0
41.500737882 18.0
41.513868164 23.0
41.526998447 25.0
41.540128730 18.0
41.553259012 19.0
41.566389295 30.0
41.579519578 36.0
41.592649860 34.0
41.605780143 28.0
41.618910426 26.0
41.632040708 23.0
41.645170991 28.0
41.658301274 23.0
41.671431556 35.0
41.684561839 29.0
41.697692122 27.0
41.710822404 23.0
41.723952687 24.0
41.737082970 29.0
41.750213253 36.0
41.763343535 25.0
41.776473818 30.0
41.789604101 19.0
41.802734383 26.0
41.815864666 33.0
41.828994949 37.0
41.842125231 23.0
41.855255514 30.0
41.868385797 33.0
41.881516079 31.0
41.894646362 36.0
41.907776645 33.0
41.920906927 30.0
41.934037210 33.0
41.947167493 26.0
41.960297775 25.0
41.973428058 27.0
41.986558341 27.0
41.999688623 22.0
42.012818906 27.0
42.025949189 39.0
42.039079471 25.0
42.052209754 25.0
42.065340037 26.0
42.078470319 26.0
42.091600602 16.0
42.104730885 22.0
42.117861167 22.0
42.130991450 27.0
42.144121733 24.0
42.157252016 22.0
42.170382298 29.0
42.183512581 26.0
42.196642864 26.0
42.209773146 19.0
42.222903429 27.0
42.236033712 27.0
42.249163994 20.0
42.262294277 26.0
42.275424560 33.0
42.288554842 21.0
42.301685125 23.0
42.314815408 22.0
42.327945690 25.0
42.341075973 26.0
42.354206256 28.0
42.367336538 28.0
42.380466821 28.0
42.393597104 31.0
42.406727386 37.0
42.419857669 33.0
42.432987952 35.0
42.446118234 31.0
42.459248517 25.0
42.472378800 27.0
42.485509082 28.0
42.498639365 27.0
42.511769648 28.0
42.524899930 22.0
42.538030213 16.0
42.551160496 17.0
42.564290778 23.0
42.577421061 27.0
42.590551344 28.0
42.603681627 30.0
42.616811909 18.0
42.629942192 33.0
42.643072475 22.0
42.656202757 40.0
42.669333040 30.0
42.682463323 19.0
42.695593605 31.0
42.708723888 28.0
42.721854171 24.0
42.734984453 31.0
42.748114736 27.0
42.761245019 17.0
42.774375301 22.0
42.787505584 25.0
42.800635867 30.0
42.813766149 24.0
42.826896432 18.0
42.840026715 20.0
42.853156997 32.0
42.866287280 22.0
42.879417563 20.0
42.892547845 22.0
42.905678128 19.0
42.918808411 33.0
42.931938693 29.0
42.945068976 23.0
42.958199259 14.0
42.971329541 37.0
42.984459824 21.0
42.997590107 21.0
43.010720389 34.0
43.023850672 31.0
43.036980955 25.0
43.050111238 21.0
43.063241520 34.0
43.076371803 34.0
43.089502086 29.0
43.102632368 24.0
43.115762651 28.0
43.128892934 27.0
43.142023216 26.0
43.155153499 20.0
43.168283782 25.0
43.181414064 25.0
43.194544347 32.0
43.207674630 31.0
43.220804912 24.0
43.233935195 23.0
43.247065478 26.0
43.260195760 22.0
43.273326043 20.0
43.286456326 29.0
43.299586608 22.0
43.312716891 26.0
43.325847174 29.0
43.338977456 23.0
43.352107739 29.0
43.365238022 27.0
43.378368304 34.0
43.391498587 20.0
43.404628870 24.0
43.417759152 23.0
43.430889435 21.0
43.444019718 22.0
43.457150000 24.0
43.470280283 25.0
43.483410566 32.0
43.496540849 23.0
43.509671131 40.0
43.522801414 38.0
43.535931697 28.0
43.549061979 31.0
43.562192262 34.0
43.575322545 31.0
43.588452827 21.0
43.601583110 28.0
43.614713393 28.0
43.627843675 22.0
43.640973958 27.0
43.654104241 34.0
43.667234523 17.0
43.680364806 34.0
43.693495089 31.0
43.706625371 25.0
43.719755654 22.0
43.732885937 24.0
43.746016219 28.0
43.759146502 23.0
43.772276785 30.0
43.785407067 14.0
43.798537350 23.0
43.811667633 27.0
43.824797915 21.0
43.837928198 25.0
43.851058481 26.0
43.864188763 25.0
43.877319046 25.0
43.890449329 24.0
43.903579611 18.0
43.916709894 24.0
43.929840177 27.0
43.942970460 23.0
43.956100742 25.0
43.969231025 25.0
43.982361308 23.0
43.995491590 21.0
44.008621873 32.0
44.021752156 25.0
44.034882438 26.0
44.048012721 26.0
44.061143004 31.0
44.074273286 28.0
44.087403569 24.0
44.100533852 23.0
44.113664134 28.0
44.126794417 22.0
44.139924700 21.0
44.153054982 29.0
44.166185265 26.0
44.179315548 34.0
44.192445830 16.0
44.205576113 22.0
44.218706396 29.0
44.231836678 16.0
44.244966961 27.0
44.258097244 23.0
44.271227526 24.0
44.284357809 21.0
44.297488092 20.0
44.310618374 22.0
44.323748657 18.0
44.336878940 24.0
44.350009223 22.0
44.363139505 35.0
44.376269788 29.0
44.389400071 27.0
44.402530353 27.0
44.415660636 27.0
44.428790919 29.0
44.441921201 25.0
44.455051484 25.0
44.468181767 20.0
44.481312049 24.0
44.494442332 15.0
44.507572615 23.0
44.520702897 29.0
44.533833180 29.0
44.546963463 24.0
44.560093745 27.0
44.573224028 25.0
44.586354311 28.0
44.599484593 26.0
44.612614876 28.0
44.625745159 31.0
44.638875441 26.0
44.652005724 11.0
44.665136007 34.0
44.678266289 28.0
44.691396572 21.0
44.704526855 36.0
44.717657137 16.0
44.730787420 23.0
44.743917703 18.0
44.757047985 19.0
44.770178268 32.0
44.783308551 34.0
44.796438834 20.0
44.809569116 19.0
44.822699399 29.0
44.835829682 29.0
44.848959964 18.0
44.862090247 30.0
44.875220530 31.0
44.888350812 27.0
44.901481095 23.0
44.914611378 25.0
44.927741660 33.0
44.940871943 28.0
44.954002226 42.0
44.967132508 34.0
44.980262791 25.0
44.993393074 20.0
45.006523356 19.0
45.019653639 29.0
45.032783922 30.0
45.045914204 37.0
45.059044487 26.0
45.072174770 26.0
45.085305052 28.0
45.098435335 31.0
45.111565618 32.0
45.124695900 26.0
45.137826183 32.0
45.150956466 29.0
45.164086748 31.0
45.177217031 34.0
45.190347314 32.0
45.203477596 28.0
45.216607879 21.0
45.229738162 34.0
45.242868445 30.0
45.255998727 33.0
45.269129010 39.0
45.282259293 39.0
45.295389575 55.0
45.308519858 39.0
45.321650141 43.0
45.334780423 65.0
45.347910706 52.0
45.361040989 63.0
45.374171271 72.0
45.387301554 72.0
45.400431837 81.0
45.413562119 127.0
45.426692402 128.0
45.439822685 161.0
45.452952967 198.0
45.466083250 227.0
45.479213533 305.0
45.492343815 315.0
45.505474098 339.0
45.518604381 346.0
45.531734663 334.0
45.544864946 264.0
45.557995229 212.0
45.571125511 246.0
45.584255794 195.0
45.597386077 196.0
45.610516359 182.0
45.623646642 182.0
45.636776925 159.0
45.649907207 128.0
45.663037490 96.0
45.676167773 75.0
45.689298056 68.0
45.702428338 62.0
45.715558621 49.0
45.728688904 48.0
45.741819186 35.0
45.754949469 39.0
45.768079752 33.0
45.781210034 33.0
45.794340317 34.0
45.807470600 40.0
45.820600882 31.0
45.833731165 27.0
45.846861448 20.0
45.859991730 27.0
45.873122013 24.0
45.886252296 30.0
45.899382578 33.0
45.912512861 23.0
45.925643144 21.0
45.938773426 31.0
45.951903709 28.0
45.965033992 31.0
45.978164274 33.0
45.991294557 25.0
46.004424840 35.0
46.017555122 37.0
46.030685405 24.0
46.043815688 24.0
46.056945970 28.0
46.070076253 22.0
46.083206536 26.0
46.096336819 31.0
46.109467101 24.0
46.122597384 27.0
46.135727667 19.0
46.148857949 24.0
46.161988232 37.0
46.175118515 26.0
46.188248797 18.0
46.201379080 28.0
46.214509363 26.0
46.227639645 23.0
46.240769928 26.0
46.253900211 26.0
46.267030493 33.0
46.280160776 30.0
46.293291059 23.0
46.306421341 21.0
46.319551624 37.0
46.332681907 22.0
46.345812189 21.0
46.358942472 28.0
46.372072755 26.0
46.385203037 16.0
46.398333320 30.0
46.411463603 19.0
46.424593885 17.0
46.437724168 29.0
46.450854451 19.0
46.463984733 22.0
46.477115016 36.0
46.490245299 27.0
46.503375581 20.0
46.516505864 20.0
46.529636147 19.0
46.542766430 28.0
46.555896712 22.0
46.569026995 32.0
46.582157278 25.0
46.595287560 22.0
46.608417843 26.0
46.621548126 25.0
46.634678408 25.0
46.647808691 38.0
46.660938974 22.0
46.674069256 28.0
46.687199539 28.0
46.700329822 39.0
46.713460104 25.0
46.726590387 22.0
46.739720670 25.0
46.752850952 19.0
46.765981235 31.0
46.779111518 25.0
46.792241800 32.0
46.805372083 16.0
46.818502366 20.0
46.831632648 24.0
46.844762931 25.0
46.857893214 21.0
46.871023496 20.0
46.884153779 22.0
46.897284062 22.0
46.910414344 17.0
46.923544627 16.0
46.936674910 26.0
46.949805192 22.0
46.962935475 22.0
46.976065758 20.0
46.989196041 14.0
47.002326323 22.0
47.015456606 14.0
47.028586889 37.0
47.041717171 20.0
47.054847454 21.0
47.067977737 14.0
47.081108019 28.0
47.094238302 24.0
47.107368585 30.0
47.120498867 21.0
47.133629150 16.0
47.146759433 22.0
47.159889715 26.0
47.173019998 22.0
47.186150281 18.0
47.199280563 27.0
47.212410846 19.0
47.225541129 20.0
47.238671411 30.0
47.251801694 31.0
47.264931977 28.0
47.278062259 28.0
47.291192542 24.0
47.304322825 19.0
47.317453107 20.0
47.330583390 22.0
47.343713673 24.0
47.356843955 22.0
47.369974238 21.0
47.383104521 17.0
47.396234803 27.0
47.409365086 30.0
47.422495369 22.0
47.435625652 27.0
47.448755934 24.0
47.461886217 23.0
47.475016500 24.0
47.488146782 20.0
47.501277065 20.0
47.514407348 28.0
47.527537630 19.0
47.540667913 21.0
47.553798196 25.0
47.566928478 12.0
47.580058761 30.0
47.593189044 17.0
47.606319326 28.0
47.619449609 25.0
47.632579892 20.0
47.645710174 27.0
47.658840457 20.0
47.671970740 34.0
47.685101022 30.0
47.698231305 25.0
47.711361588 26.0
47.724491870 21.0
47.737622153 22.0
47.750752436 31.0
47.763882718 32.0
47.777013001 29.0
47.790143284 21.0
47.803273566 22.0
47.816403849 25.0
47.829534132 20.0
47.842664414 29.0
47.855794697 15.0
47.868924980 24.0
47.882055263 20.0
47.895185545 27.0
47.908315828 29.0
47.921446111 22.0
47.934576393 23.0
47.947706676 15.0
47.960836959 25.0
47.973967241 31.0
47.987097524 25.0
48.000227807 28.0
48.013358089 24.0
48.026488372 23.0
48.039618655 26.0
48.052748937 27.0
48.065879220 14.0
48.079009503 11.0
48.092139785 26.0
48.105270068 25.0
48.118400351 36.0
48.131530633 20.0
48.144660916 19.0
48.157791199 30.0
48.170921481 16.0
48.184051764 24.0
48.197182047 19.0
48.210312329 20.0
48.223442612 29.0
48.236572895 20.0
48.249703177 23.0
48.262833460 18.0
48.275963743 17.0
48.289094026 16.0
48.302224308 28.0
48.315354591 23.0
48.328484874 27.0
48.341615156 21.0
48.354745439 26.0
48.367875722 31.0
48.381006004 21.0
48.394136287 22.0
48.407266570 25.0
48.420396852 14.0
48.433527135 23.0
48.446657418 22.0
48.459787700 20.0
48.472917983 13.0
48.486048266 31.0
48.499178548 19.0
48.512308831 18.0
48.525439114 20.0
48.538569396 22.0
48.551699679 19.0
48.564829962 24.0
48.577960244 19.0
48.591090527 19.0
48.604220810 21.0
48.617351092 18.0
48.630481375 33.0
48.643611658 21.0
48.656741940 21.0
48.669872223 20.0
48.683002506 24.0
48.696132788 31.0
48.709263071 17.0
48.722393354 11.0
48.735523637 11.0
48.748653919 24.0
48.761784202 22.0
48.774914485 16.0
48.788044767 19.0
48.801175050 21.0
48.814305333 28.0
48.827435615 26.0
48.840565898 16.0
48.853696181 23.0
48.866826463 24.0
48.879956746 20.0
48.893087029 22.0
48.906217311 18.0
48.919347594 16.0
48.932477877 21.0
48.945608159 19.0
48.958738442 15.0
48.971868725 24.0
48.984999007 20.0
48.998129290 20.0
49.011259573 19.0
49.024389855 25.0
49.037520138 23.0
49.050650421 23.0
49.063780703 31.0
49.076910986 29.0
49.090041269 30.0
49.103171551 26.0
49.116301834 20.0
49.129432117 18.0
49.142562399 20.0
49.155692682 20.0
49.168822965 27.0
49.181953248 21.0
49.195083530 20.0
49.208213813 13.0
49.221344096 20.0
49.234474378 25.0
49.247604661 18.0
49.260734944 16.0
49.273865226 29.0
49.286995509 18.0
49.300125792 20.0
49.313256074 25.0
49.326386357 28.0
49.339516640 9.0
49.352646922 21.0
49.365777205 30.0
49.378907488 19.0
49.392037770 25.0
49.405168053 23.0
49.418298336 27.0
49.431428618 21.0
49.444558901 24.0
49.457689184 20.0
49.470819466 18.0
49.483949749 26.0
49.497080032 17.0
49.510210314 12.0
49.523340597 17.0
49.536470880 18.0
49.549601162 15.0
49.562731445 19.0
49.575861728 24.0
49.588992010 18.0
49.602122293 21.0
49.615252576 21.0
49.628382859 26.0
49.641513141 26.0
49.654643424 19.0
49.667773707 20.0
49.680903989 15.0
49.694034272 14.0
49.707164555 20.0
49.720294837 26.0
49.733425120 22.0
49.746555403 31.0
49.759685685 28.0
49.772815968 23.0
49.785946251 21.0
49.799076533 21.0
49.812206816 20.0
49.825337099 16.0
49.838467381 16.0
49.851597664 12.0
49.864727947 20.0
49.877858229 25.0
49.890988512 19.0
49.904118795 25.0
49.917249077 21.0
49.930379360 23.0
49.943509643 26.0
49.956639925 28.0
49.969770208 20.0
49.982900491 27.0
49.996030773 23.0
50.009161056 19.0
50.022291339 26.0
50.035421621 33.0
50.048551904 27.0
50.061682187 21.0
50.074812470 13.0
50.087942752 21.0
50.101073035 13.0
50.114203318 23.0
50.127333600 19.0
50.140463883 21.0
50.153594166 25.0
50.166724448 25.0
50.179854731 17.0
50.192985014 23.0
50.206115296 29.0
50.219245579 25.0
50.232375862 31.0
50.245506144 23.0
50.258636427 21.0
50.271766710 15.0
50.284896992 12.0
50.298027275 24.0
50.311157558 25.0
50.324287840 21.0
50.337418123 27.0
50.350548406 29.0
50.363678688 34.0
50.376808971 25.0
50.389939254 30.0
50.403069536 15.0
50.416199819 16.0
50.429330102 25.0
50.442460384 15.0
50.455590667 20.0
50.468720950 20.0
50.481851233 21.0
50.494981515 17.0
50.508111798 18.0
50.521242081 29.0
50.534372363 28.0
50.547502646 22.0
50.560632929 31.0
50.573763211 14.0
50.586893494 23.0
50.600023777 13.0
50.613154059 23.0
50.626284342 23.0
50.639414625 22.0
50.652544907 20.0
50.665675190 15.0
50.678805473 22.0
50.691935755 11.0
50.705066038 25.0
50.718196321 27.0
50.731326603 27.0
50.744456886 21.0
50.757587169 19.0
50.770717451 26.0
50.783847734 10.0
50.796978017 18.0
50.810108299 20.0
50.823238582 16.0
50.836368865 16.0
50.849499147 24.0
50.862629430 21.0
50.875759713 29.0
50.888889995 20.0
50.902020278 30.0
50.915150561 25.0
50.928280844 25.0
50.941411126 23.0
50.954541409 30.0
50.967671692 33.0
50.980801974 26.0
50.993932257 19.0
51.007062540 21.0
51.020192822 22.0
51.033323105 22.0
51.046453388 23.0
51.059583670 13.0
51.072713953 24.0
51.085844236 23.0
51.098974518 31.0
51.112104801 18.0
51.125235084 18.0
51.138365366 18.0
51.151495649 20.0
51.164625932 29.0
51.177756214 21.0
51.190886497 16.0
51.204016780 20.0
51.217147062 15.0
51.230277345 28.0
51.243407628 29.0
51.256537910 23.0
51.269668193 25.0
51.282798476 28.0
51.295928758 22.0
51.309059041 15.0
51.322189324 23.0
51.335319606 23.0
51.348449889 24.0
51.361580172 14.0
51.374710455 17.0
51.387840737 18.0
51.400971020 26.0
51.414101303 13.0
51.427231585 18.0
51.440361868 19.0
51.453492151 22.0
51.466622433 25.0
51.479752716 17.0
51.492882999 20.0
51.506013281 21.0
51.519143564 23.0
51.532273847 28.0
51.545404129 16.0
51.558534412 17.0
51.571664695 17.0
51.584794977 19.0
51.597925260 20.0
51.611055543 25.0
51.624185825 26.0
51.637316108 25.0
51.650446391 17.0
51.663576673 19.0
51.676706956 33.0
51.689837239 26.0
51.702967521 18.0
51.716097804 18.0
51.729228087 17.0
51.742358369 16.0
51.755488652 22.0
51.768618935 26.0
51.781749217 21.0
51.794879500 28.0
51.808009783 21.0
51.821140066 16.0
51.834270348 23.0
51.847400631 31.0
51.860530914 21.0
51.873661196 15.0
51.886791479 22.0
51.899921762 30.0
51.913052044 23.0
51.926182327 26.0
51.939312610 30.0
51.952442892 28.0
51.965573175 23.0
51.978703458 14.0
51.991833740 12.0
52.004964023 23.0
52.018094306 22.0
52.031224588 28.0
52.044354871 19.0
52.057485154 19.0
52.070615436 23.0
52.083745719 22.0
52.096876002 15.0
52.110006284 20.0
52.123136567 22.0
52.136266850 20.0
52.149397132 15.0
52.162527415 19.0
52.175657698 23.0
52.188787980 22.0
52.201918263 23.0
52.215048546 19.0
52.228178828 24.0
52.241309111 29.0
52.254439394 21.0
52.267569677 22.0
52.280699959 15.0
52.293830242 18.0
52.306960525 10.0
52.320090807 25.0
52.333221090 21.0
52.346351373 21.0
52.359481655 19.0
52.372611938 21.0
52.385742221 28.0
52.398872503 17.0
52.412002786 23.0
52.425133069 26.0
52.438263351 20.0
52.451393634 24.0
52.464523917 23.0
52.477654199 22.0
52.490784482 22.0
52.503914765 38.0
52.517045047 35.0
52.530175330 37.0
52.543305613 30.0
52.556435895 42.0
52.569566178 39.0
52.582696461 49.0
52.595826743 39.0
52.608957026 49.0
52.622087309 50.0
52.635217591 63.0
52.648347874 70.0
52.661478157 84.0
52.674608440 75.0
52.687738722 79.0
52.700869005 61.0
52.713999288 93.0
52.727129570 85.0
52.740259853 80.0
52.753390136 94.0
52.766520418 83.0
52.779650701 103.0
52.792780984 96.0
52.805911266 97.0
52.819041549 98.0
52.832171832 103.0
52.845302114 83.0
52.858432397 104.0
52.871562680 103.0
52.884692962 85.0
52.897823245 96.0
52.910953528 91.0
52.924083810 99.0
52.937214093 105.0
52.950344376 96.0
52.963474658 103.0
52.976604941 101.0
52.989735224 94.0
53.002865506 98.0
53.015995789 104.0
53.029126072 98.0
53.042256354 119.0
53.055386637 118.0
53.068516920 97.0
53.081647202 109.0
53.094777485 119.0
53.107907768 120.0
53.121038051 138.0
53.134168333 133.0
53.147298616 134.0
53.160428899 165.0
53.173559181 170.0
53.186689464 198.0
53.199819747 177.0
53.212950029 222.0
53.226080312 232.0
53.239210595 206.0
53.252340877 193.0
53.265471160 173.0
53.278601443 136.0
53.291731725 122.0
53.304862008 139.0
53.317992291 144.0
53.331122573 123.0
53.344252856 102.0
53.357383139 125.0
53.370513421 108.0
53.383643704 98.0
53.396773987 66.0
53.409904269 82.0
53.423034552 56.0
53.436164835 65.0
53.449295117 55.0
53.462425400 53.0
53.475555683 36.0
53.488685965 31.0
53.501816248 33.0
53.514946531 39.0
53.528076813 35.0
53.541207096 33.0
53.554337379 34.0
53.567467662 26.0
53.580597944 20.0
53.593728227 23.0
53.606858510 45.0
53.619988792 28.0
53.633119075 27.0
53.646249358 23.0
53.659379640 28.0
53.672509923 27.0
53.685640206 20.0
53.698770488 20.0
53.711900771 35.0
53.725031054 23.0
53.738161336 25.0
53.751291619 22.0
53.764421902 12.0
53.777552184 28.0
53.790682467 14.0
53.803812750 22.0
53.816943032 22.0
53.830073315 16.0
53.843203598 22.0
53.856333880 19.0
53.869464163 22.0
53.882594446 19.0
53.895724728 16.0
53.908855011 16.0
53.921985294 21.0
53.935115576 13.0
53.948245859 23.0
53.961376142 24.0
53.974506424 32.0
53.987636707 26.0
54.000766990 30.0
54.013897273 23.0
54.027027555 19.0
54.040157838 16.0
54.053288121 14.0
54.066418403 25.0
54.079548686 20.0
54.092678969 25.0
54.105809251 23.0
54.118939534 25.0
54.132069817 23.0
54.145200099 16.0
54.158330382 16.0
54.171460665 28.0
54.184590947 21.0
54.197721230 20.0
54.210851513 22.0
54.223981795 19.0
54.237112078 23.0
54.250242361 14.0
54.263372643 15.0
54.276502926 12.0
54.289633209 25.0
54.302763491 18.0
54.315893774 18.0
54.329024057 19.0
54.342154339 15.0
54.355284622 20.0
54.368414905 22.0
54.381545187 29.0
54.394675470 16.0
54.407805753 19.0
54.420936035 12.0
54.434066318 21.0
54.447196601 17.0
54.460326884 29.0
54.473457166 22.0
54.486587449 19.0
54.499717732 23.0
54.512848014 26.0
54.525978297 20.0
54.539108580 19.0
54.552238862 24.0
54.565369145 16.0
54.578499428 24.0
54.591629710 21.0
54.604759993 19.0
54.617890276 25.0
54.631020558 26.0
54.644150841 19.0
54.657281124 22.0
54.670411406 25.0
54.683541689 17.0
54.696671972 13.0
54.709802254 14.0
54.722932537 17.0
54.736062820 19.0
54.749193102 26.0
54.762323385 23.0
54.775453668 26.0
54.788583950 13.0
54.801714233 19.0
54.814844516 20.0
54.827974798 25.0
54.841105081 19.0
54.854235364 14.0
54.867365647 15.0
54.880495929 20.0
54.893626212 23.0
54.906756495 19.0
54.919886777 18.0
54.933017060 17.0
54.946147343 18.0
54.959277625 24.0
54.972407908 29.0
54.985538191 27.0
54.998668473 19.0
55.011798756 21.0
55.024929039 13.0
55.038059321 20.0
55.051189604 31.0
55.064319887 10.0
55.077450169 15.0
55.090580452 21.0
55.103710735 21.0
55.116841017 22.0
55.129971300 20.0
55.143101583 27.0
55.156231865 26.0
55.169362148 19.0
55.182492431 12.0
55.195622713 17.0
55.208752996 32.0
55.221883279 14.0
55.235013561 18.0
55.248143844 15.0
55.261274127 26.0
55.274404409 20.0
55.287534692 21.0
55.300664975 23.0
55.313795258 27.0
55.326925540 20.0
55.340055823 22.0
55.353186106 19.0
55.366316388 19.0
55.379446671 15.0
55.392576954 22.0
55.405707236 19.0
55.418837519 19.0
55.431967802 18.0
55.445098084 15.0
55.458228367 24.0
55.471358650 26.0
55.484488932 14.0
55.497619215 20.0
55.510749498 24.0
55.523879780 21.0
55.537010063 23.0
55.550140346 18.0
55.563270628 14.0
55.576400911 18.0
55.589531194 20.0
55.602661476 18.0
55.615791759 14.0
55.628922042 24.0
55.642052324 19.0
55.655182607 23.0
55.668312890 17.0
55.681443172 22.0
55.694573455 23.0
55.707703738 20.0
55.720834020 16.0
55.733964303 20.0
55.747094586 25.0
55.760224869 26.0
55.773355151 24.0
55.786485434 16.0
55.799615717 28.0
55.812745999 15.0
55.825876282 23.0
55.839006565 19.0
55.852136847 16.0
55.865267130 20.0
55.878397413 23.0
55.891527695 22.0
55.904657978 23.0
55.917788261 17.0
55.930918543 17.0
55.944048826 17.0
55.957179109 19.0
55.970309391 22.0
55.983439674 24.0
55.996569957 22.0
56.009700239 23.0
56.022830522 23.0
56.035960805 11.0
56.049091087 20.0
56.062221370 30.0
56.075351653 21.0
56.088481935 25.0
56.101612218 17.0
56.114742501 14.0
56.127872783 20.0
56.141003066 20.0
56.154133349 17.0
56.167263631 29.0
56.180393914 23.0
56.193524197 30.0
56.206654480 22.0
56.219784762 22.0
56.232915045 21.0
56.246045328 13.0
56.259175610 29.0
56.272305893 19.0
56.285436176 23.0
56.298566458 15.0
56.311696741 22.0
56.324827024 23.0
56.337957306 17.0
56.351087589 13.0
56.364217872 17.0
56.377348154 16.0
56.390478437 20.0
56.403608720 17.0
56.416739002 14.0
56.429869285 19.0
56.442999568 25.0
56.456129850 24.0
56.469260133 23.0
56.482390416 16.0
56.495520698 15.0
56.508650981 20.0
56.521781264 21.0
56.534911546 27.0
56.548041829 21.0
56.561172112 16.0
56.574302394 21.0
56.587432677 25.0
56.600562960 14.0
56.613693242 19.0
56.626823525 12.0
56.639953808 19.0
56.653084091 18.0
56.666214373 18.0
56.679344656 22.0
56.692474939 19.0
56.705605221 19.0
56.718735504 27.0
56.731865787 13.0
56.744996069 19.0
56.758126352 20.0
56.771256635 24.0
56.784386917 12.0
56.797517200 16.0
56.810647483 20.0
56.823777765 18.0
56.836908048 21.0
56.850038331 17.0
56.863168613 24.0
56.876298896 18.0
56.889429179 25.0
56.902559461 23.0
56.915689744 19.0
56.928820027 12.0
56.941950309 20.0
56.955080592 23.0
56.968210875 19.0
56.981341157 14.0
56.994471440 25.0
57.007601723 14.0
57.020732005 13.0
57.033862288 18.0
57.046992571 16.0
57.060122854 15.0
57.073253136 15.0
57.086383419 18.0
57.099513702 10.0
57.112643984 22.0
57.125774267 19.0
57.138904550 29.0
57.152034832 17.0
57.165165115 19.0
57.178295398 17.0
57.191425680 15.0
57.204555963 18.0
57.217686246 17.0
57.230816528 28.0
57.243946811 24.0
57.257077094 24.0
57.270207376 29.0
57.283337659 19.0
57.296467942 11.0
57.309598224 18.0
57.322728507 11.0
57.335858790 12.0
57.348989072 12.0
57.362119355 18.0
57.375249638 21.0
57.388379920 16.0
57.401510203 18.0
57.414640486 18.0
57.427770768 30.0
57.440901051 27.0
57.454031334 15.0
57.467161616 21.0
57.480291899 20.0
57.493422182 17.0
57.506552465 20.0
57.519682747 17.0
57.532813030 15.0
57.545943313 23.0
57.559073595 19.0
57.572203878 25.0
57.585334161 16.0
57.598464443 21.0
57.611594726 17.0
57.624725009 17.0
57.637855291 17.0
57.650985574 24.0
57.664115857 22.0
57.677246139 11.0
57.690376422 18.0
57.703506705 19.0
57.716636987 19.0
57.729767270 17.0
57.742897553 14.0
57.756027835 18.0
57.769158118 24.0
57.782288401 12.0
57.795418683 18.0
57.808548966 17.0
57.821679249 25.0
57.834809531 22.0
57.847939814 13.0
57.861070097 19.0
57.874200379 20.0
57.887330662 15.0
57.900460945 26.0
57.913591227 24.0
57.926721510 22.0
57.939851793 23.0
57.952982076 20.0
57.966112358 20.0
57.979242641 15.0
57.992372924 24.0
58.005503206 23.0
58.018633489 10.0
58.031763772 18.0
58.044894054 15.0
58.058024337 31.0
58.071154620 17.0
58.084284902 22.0
58.097415185 26.0
58.110545468 10.0
58.123675750 17.0
58.136806033 15.0
58.149936316 22.0
58.163066598 19.0
58.176196881 17.0
58.189327164 23.0
58.202457446 17.0
58.215587729 16.0
58.228718012 15.0
58.241848294 17.0
58.254978577 16.0
58.268108860 21.0
58.281239142 15.0
58.294369425 21.0
58.307499708 20.0
58.320629990 22.0
58.333760273 23.0
58.346890556 27.0
58.360020838 12.0
58.373151121 17.0
58.386281404 18.0
58.399411687 28.0
58.412541969 17.0
58.425672252 16.0
58.438802535 22.0
58.451932817 19.0
58.465063100 26.0
58.478193383 21.0
58.491323665 17.0
58.504453948 20.0
58.517584231 8.0
58.530714513 18.0
58.543844796 20.0
58.556975079 24.0
58.570105361 21.0
58.583235644 19.0
58.596365927 20.0
58.609496209 19.0
58.622626492 22.0
58.635756775 20.0
58.648887057 18.0
58.662017340 26.0
58.675147623 13.0
58.688277905 19.0
58.701408188 15.0
58.714538471 27.0
58.727668753 12.0
58.740799036 29.0
58.753929319 14.0
58.767059601 18.0
58.780189884 19.0
58.793320167 18.0
58.806450449 17.0
58.819580732 11.0
58.832711015 17.0
58.845841298 20.0
58.858971580 19.0
58.872101863 22.0
58.885232146 12.0
58.898362428 14.0
58.911492711 20.0
58.924622994 17.0
58.937753276 15.0
58.950883559 33.0
58.964013842 25.0
58.977144124 25.0
58.990274407 33.0
59.003404690 21.0
59.016534972 19.0
59.029665255 26.0
59.042795538 22.0
59.055925820 22.0
59.069056103 21.0
59.082186386 19.0
59.095316668 19.0
59.108446951 14.0
59.121577234 20.0
59.134707516 24.0
59.147837799 28.0
59.160968082 14.0
59.174098364 19.0
59.187228647 21.0
59.200358930 18.0
59.213489212 26.0
59.226619495 17.0
59.239749778 21.0
59.252880061 21.0
59.266010343 19.0
59.279140626 15.0
59.292270909 13.0
59.305401191 18.0
59.318531474 26.0
59.331661757 21.0
59.344792039 18.0
59.357922322 22.0
59.371052605 26.0
59.384182887 29.0
59.397313170 21.0
59.410443453 13.0
59.423573735 25.0
59.436704018 26.0
59.449834301 25.0
59.462964583 19.0
59.476094866 27.0
59.489225149 30.0
59.502355431 30.0
59.515485714 37.0
59.528615997 28.0
59.541746279 36.0
59.554876562 27.0
59.568006845 31.0
59.581137127 34.0
59.594267410 39.0
59.607397693 39.0
59.620527975 37.0
59.633658258 38.0
59.646788541 36.0
59.659918823 46.0
59.673049106 39.0
59.686179389 44.0
59.699309672 41.0
59.712439954 40.0
59.725570237 41.0
59.738700520 42.0
59.751830802 43.0
59.764961085 44.0
59.778091368 46.0
59.791221650 29.0
59.804351933 42.0
59.817482216 53.0
59.830612498 39.0
59.843742781 46.0
59.856873064 44.0
59.870003346 49.0
59.883133629 53.0
59.896263912 48.0
59.909394194 50.0
59.922524477 45.0
59.935654760 49.0
59.948785042 52.0
59.961915325 54.0
59.975045608 75.0
59.988175890 44.0
60.001306173 66.0
60.014436456 60.0
60.027566738 80.0
60.040697021 67.0
60.053827304 51.0
60.066957586 66.0
60.080087869 58.0
60.093218152 61.0
60.106348434 54.0
60.119478717 45.0
60.132609000 54.0
60.145739283 43.0
60.158869565 54.0
60.171999848 41.0
60.185130131 30.0
60.198260413 37.0
60.211390696 36.0
60.224520979 35.0
60.237651261 34.0
60.250781544 24.0
60.263911827 40.0
60.277042109 26.0
60.290172392 20.0
60.303302675 31.0
60.316432957 19.0
60.329563240 19.0
60.342693523 17.0
60.355823805 13.0
60.368954088 18.0
60.382084371 19.0
60.395214653 24.0
60.408344936 23.0
60.421475219 14.0
60.434605501 22.0
60.447735784 19.0
60.460866067 20.0
60.473996349 20.0
60.487126632 17.0
60.500256915 26.0
60.513387197 19.0
60.526517480 20.0
60.539647763 27.0
60.552778045 26.0
60.565908328 19.0
60.579038611 21.0
60.592168894 26.0
60.605299176 19.0
60.618429459 22.0
60.631559742 19.0
60.644690024 15.0
60.657820307 16.0
60.670950590 25.0
60.684080872 20.0
60.697211155 20.0
60.710341438 18.0
60.723471720 12.0
60.736602003 17.0
60.749732286 19.0
60.762862568 14.0
60.775992851 18.0
60.789123134 18.0
60.802253416 9.0
60.815383699 17.0
60.828513982 18.0
60.841644264 17.0
60.854774547 15.0
60.867904830 27.0
60.881035112 21.0
60.894165395 15.0
60.907295678 15.0
60.920425960 22.0
60.933556243 23.0
60.946686526 16.0
60.959816808 25.0
60.972947091 20.0
60.986077374 13.0
60.999207656 21.0
61.012337939 20.0
61.025468222 27.0
61.038598505 20.0
61.051728787 22.0
61.064859070 26.0
61.077989353 19.0
61.091119635 12.0
61.104249918 24.0
61.117380201 20.0
61.130510483 9.0
61.143640766 17.0
61.156771049 11.0
61.169901331 21.0
61.183031614 18.0
61.196161897 12.0
61.209292179 17.0
61.222422462 19.0
61.235552745 12.0
61.248683027 23.0
61.261813310 20.0
61.274943593 17.0
61.288073875 19.0
61.301204158 18.0
61.314334441 28.0
61.327464723 22.0
61.340595006 12.0
61.353725289 17.0
61.366855571 16.0
61.379985854 17.0
61.393116137 17.0
61.406246419 25.0
61.419376702 20.0
61.432506985 13.0
61.445637268 16.0
61.458767550 14.0
61.471897833 20.0
61.485028116 15.0
61.498158398 22.0
61.511288681 14.0
61.524418964 11.0
61.537549246 17.0
61.550679529 20.0
61.563809812 25.0
61.576940094 9.0
61.590070377 20.0
61.603200660 10.0
61.616330942 18.0
61.629461225 16.0
61.642591508 15.0
61.655721790 16.0
61.668852073 17.0
61.681982356 17.0
61.695112638 21.0
61.708242921 19.0
61.721373204 23.0
61.734503486 23.0
61.747633769 17.0
61.760764052 16.0
61.773894334 20.0
61.787024617 17.0
61.800154900 17.0
61.813285182 19.0
61.826415465 16.0
61.839545748 22.0
61.852676030 23.0
61.865806313 13.0
61.878936596 20.0
61.892066879 20.0
61.905197161 21.0
61.918327444 14.0
61.931457727 27.0
61.944588009 18.0
61.957718292 18.0
61.970848575 16.0
61.983978857 20.0
61.997109140 17.0
62.010239423 19.0
62.023369705 16.0
62.036499988 14.0
62.049630271 14.0
62.062760553 13.0
62.075890836 21.0
62.089021119 15.0
62.102151401 18.0
62.115281684 9.0
62.128411967 17.0
62.141542249 19.0
62.154672532 14.0
62.167802815 17.0
62.180933097 20.0
62.194063380 28.0
62.207193663 26.0
62.220323945 20.0
62.233454228 17.0
62.246584511 13.0
62.259714793 22.0
62.272845076 12.0
62.285975359 15.0
62.299105641 19.0
62.312235924 16.0
62.325366207 20.0
62.338496490 19.0
62.351626772 20.0
62.364757055 17.0
62.377887338 11.0
62.391017620 16.0
62.404147903 26.0
62.417278186 26.0
62.430408468 18.0
62.443538751 13.0
62.456669034 10.0
62.469799316 20.0
62.482929599 19.0
62.496059882 14.0
62.509190164 12.0
62.522320447 13.0
62.535450730 16.0
62.548581012 20.0
62.561711295 18.0
62.574841578 14.0
62.587971860 23.0
62.601102143 20.0
62.614232426 15.0
62.627362708 17.0
62.640492991 23.0
62.653623274 15.0
62.666753556 19.0
62.679883839 15.0
62.693014122 16.0
62.706144404 18.0
62.719274687 11.0
62.732404970 22.0
62.745535252 21.0
62.758665535 23.0
62.771795818 11.0
62.784926101 15.0
62.798056383 18.0
62.811186666 20.0
62.824316949 24.0
62.837447231 26.0
62.850577514 26.0
62.863707797 18.0
62.876838079 17.0
62.889968362 23.0
62.903098645 6.0
62.916228927 18.0
62.929359210 13.0
62.942489493 23.0
62.955619775 11.0
62.968750058 13.0
62.981880341 20.0
62.995010623 20.0
63.008140906 13.0
63.021271189 19.0
63.034401471 18.0
63.047531754 13.0
63.060662037 21.0
63.073792319 18.0
63.086922602 19.0
63.100052885 16.0
63.113183167 9.0
63.126313450 21.0
63.139443733 14.0
63.152574015 11.0
63.165704298 21.0
63.178834581 18.0
63.191964863 19.0
63.205095146 32.0
63.218225429 14.0
63.231355712 17.0
63.244485994 15.0
63.257616277 12.0
63.270746560 12.0
63.283876842 16.0
63.297007125 20.0
63.310137408 21.0
63.323267690 17.0
63.336397973 15.0
63.349528256 20.0
63.362658538 11.0
63.375788821 13.0
63.388919104 19.0
63.402049386 28.0
63.415179669 21.0
63.428309952 21.0
63.441440234 14.0
63.454570517 11.0
63.467700800 23.0
63.480831082 11.0
63.493961365 13.0
63.507091648 14.0
63.520221930 19.0
63.533352213 14.0
63.546482496 20.0
63.559612778 19.0
63.572743061 14.0
63.585873344 13.0
63.599003626 20.0
63.612133909 20.0
63.625264192 11.0
63.638394475 10.0
63.651524757 20.0
63.664655040 12.0
63.677785323 14.0
63.690915605 10.0
63.704045888 15.0
63.717176171 16.0
63.730306453 17.0
63.743436736 16.0
63.756567019 19.0
63.769697301 17.0
63.782827584 24.0
63.795957867 10.0
63.809088149 15.0
63.822218432 18.0
63.835348715 19.0
63.848478997 21.0
63.861609280 11.0
63.874739563 17.0
63.887869845 18.0
63.901000128 11.0
63.914130411 10.0
63.927260693 22.0
63.940390976 18.0
63.953521259 20.0
63.966651541 17.0
63.979781824 18.0
63.992912107 26.0
64.006042389 20.0
64.019172672 14.0
64.032302955 19.0
64.045433237 18.0
64.058563520 21.0
64.071693803 12.0
64.084824086 13.0
64.097954368 18.0
64.111084651 14.0
64.124214934 16.0
64.137345216 17.0
64.150475499 15.0
64.163605782 14.0
64.176736064 18.0
64.189866347 14.0
64.202996630 17.0
64.216126912 18.0
64.229257195 17.0
64.242387478 22.0
64.255517760 17.0
64.268648043 31.0
64.281778326 25.0
64.294908608 17.0
64.308038891 11.0
64.321169174 14.0
64.334299456 19.0
64.347429739 11.0
64.360560022 21.0
64.373690304 14.0
64.386820587 18.0
64.399950870 14.0
64.413081152 17.0
64.426211435 21.0
64.439341718 21.0
64.452472000 14.0
64.465602283 16.0
64.478732566 18.0
64.491862848 19.0
64.504993131 18.0
64.518123414 24.0
64.531253697 19.0
64.544383979 18.0
64.557514262 13.0
64.570644545 17.0
64.583774827 19.0
64.596905110 21.0
64.610035393 16.0
64.623165675 11.0
64.636295958 15.0
64.649426241 14.0
64.662556523 19.0
64.675686806 11.0
64.688817089 15.0
64.701947371 20.0
64.715077654 19.0
64.728207937 18.0
64.741338219 14.0
64.754468502 25.0
64.767598785 20.0
64.780729067 22.0
64.793859350 12.0
64.806989633 7.0
64.820119915 18.0
64.833250198 19.0
64.846380481 14.0
64.859510763 16.0
64.872641046 16.0
64.885771329 20.0
64.898901611 15.0
64.912031894 17.0
64.925162177 20.0
64.938292459 15.0
64.951422742 17.0
64.964553025 18.0
64.977683308 19.0
64.990813590 10.0
65.003943873 16.0
65.017074156 15.0
65.030204438 24.0
65.043334721 17.0
65.056465004 15.0
65.069595286 21.0
65.082725569 8.0
65.095855852 19.0
65.108986134 20.0
65.122116417 19.0
65.135246700 23.0
65.148376982 20.0
65.161507265 18.0
65.174637548 16.0
65.187767830 15.0
65.200898113 20.0
65.214028396 21.0
65.227158678 15.0
65.240288961 20.0
65.253419244 21.0
65.266549526 18.0
65.279679809 18.0
65.292810092 27.0
65.305940374 16.0
65.319070657 19.0
65.332200940 20.0
65.345331222 25.0
65.358461505 15.0
65.371591788 18.0
65.384722070 23.0
65.397852353 15.0
65.410982636 21.0
65.424112919 12.0
65.437243201 19.0
65.450373484 19.0
65.463503767 18.0
65.476634049 18.0
65.489764332 14.0
65.502894615 21.0
65.516024897 17.0
65.529155180 21.0
65.542285463 21.0
65.555415745 16.0
65.568546028 22.0
65.581676311 22.0
65.594806593 25.0
65.607936876 21.0
65.621067159 19.0
65.634197441 19.0
65.647327724 23.0
65.660458007 23.0
65.673588289 17.0
65.686718572 15.0
65.699848855 19.0
65.712979137 29.0
65.726109420 32.0
65.739239703 26.0
65.752369985 30.0
65.765500268 16.0
65.778630551 26.0
65.791760833 26.0
65.804891116 19.0
65.818021399 21.0
65.831151682 31.0
65.844281964 25.0
65.857412247 32.0
65.870542530 29.0
65.883672812 35.0
65.896803095 27.0
65.909933378 30.0
65.923063660 31.0
65.936193943 36.0
65.949324226 40.0
65.962454508 42.0
65.975584791 40.0
65.988715074 54.0
66.001845356 39.0
66.014975639 48.0
66.028105922 41.0
66.041236204 63.0
66.054366487 65.0
66.067496770 90.0
66.080627052 84.0
66.093757335 94.0
66.106887618 87.0
66.120017900 103.0
66.133148183 107.0
66.146278466 109.0
66.159408748 121.0
66.172539031 137.0
66.185669314 114.0
66.198799596 101.0
66.211929879 110.0
66.225060162 131.0
66.238190444 119.0
66.251320727 137.0
66.264451010 141.0
66.277581293 148.0
66.290711575 144.0
66.303841858 142.0
66.316972141 153.0
66.330102423 171.0
66.343232706 183.0
66.356362989 156.0
66.369493271 190.0
66.382623554 219.0
66.395753837 210.0
66.408884119 241.0
66.422014402 245.0
66.435144685 242.0
66.448274967 210.0
66.461405250 197.0
66.474535533 186.0
66.487665815 145.0
66.500796098 152.0
66.513926381 148.0
66.527056663 116.0
66.540186946 139.0
66.553317229 136.0
66.566447511 144.0
66.579577794 138.0
66.592708077 138.0
66.605838359 113.0
66.618968642 112.0
66.632098925 79.0
66.645229207 74.0
66.658359490 65.0
66.671489773 61.0
66.684620055 56.0
66.697750338 60.0
66.710880621 46.0
66.724010904 40.0
66.737141186 29.0
66.750271469 37.0
66.763401752 30.0
66.776532034 25.0
66.789662317 30.0
66.802792600 20.0
66.815922882 25.0
66.829053165 26.0
66.842183448 17.0
66.855313730 32.0
66.868444013 26.0
66.881574296 22.0
66.894704578 23.0
66.907834861 25.0
66.920965144 22.0
66.934095426 19.0
66.947225709 16.0
66.960355992 22.0
66.973486274 21.0
66.986616557 32.0
66.999746840 22.0
67.012877122 19.0
67.026007405 17.0
67.039137688 17.0
67.052267970 15.0
67.065398253 17.0
67.078528536 23.0
67.091658818 16.0
67.104789101 22.0
67.117919384 13.0
67.131049666 14.0
67.144179949 16.0
67.157310232 16.0
67.170440515 17.0
67.183570797 19.0
67.196701080 10.0
67.209831363 20.0
67.222961645 17.0
67.236091928 19.0
67.249222211 17.0
67.262352493 21.0
67.275482776 22.0
67.288613059 23.0
67.301743341 17.0
67.314873624 19.0
67.328003907 20.0
67.341134189 21.0
67.354264472 29.0
67.367394755 17.0
67.380525037 16.0
67.393655320 19.0
67.406785603 20.0
67.419915885 16.0
67.433046168 13.0
67.446176451 17.0
67.459306733 27.0
67.472437016 7.0
67.485567299 17.0
67.498697581 17.0
67.511827864 14.0
67.524958147 15.0
67.538088429 19.0
67.551218712 29.0
67.564348995 18.0
67.577479277 16.0
67.590609560 19.0
67.603739843 13.0
67.616870126 25.0
67.630000408 16.0
67.643130691 17.0
67.656260974 13.0
67.669391256 16.0
67.682521539 23.0
67.695651822 16.0
67.708782104 15.0
67.721912387 13.0
67.735042670 17.0
67.748172952 33.0
67.761303235 22.0
67.774433518 21.0
67.787563800 15.0
67.800694083 15.0
67.813824366 23.0
67.826954648 12.0
67.840084931 20.0
67.853215214 19.0
67.866345496 16.0
67.879475779 19.0
67.892606062 15.0
67.905736344 21.0
67.918866627 10.0
67.931996910 17.0
67.945127192 17.0
67.958257475 13.0
67.971387758 15.0
67.984518040 20.0
67.997648323 17.0
68.010778606 21.0
68.023908889 23.0
68.037039171 14.0
68.050169454 23.0
68.063299737 18.0
68.076430019 21.0
68.089560302 30.0
68.102690585 12.0
68.115820867 18.0
68.128951150 22.0
68.142081433 15.0
68.155211715 17.0
68.168341998 19.0
68.181472281 17.0
68.194602563 15.0
68.207732846 16.0
68.220863129 11.0
68.233993411 20.0
68.247123694 18.0
68.260253977 23.0
68.273384259 14.0
68.286514542 14.0
68.299644825 17.0
68.312775107 16.0
68.325905390 10.0
68.339035673 15.0
68.352165955 26.0
68.365296238 19.0
68.378426521 21.0
68.391556803 16.0
68.404687086 10.0
68.417817369 17.0
68.430947651 16.0
68.444077934 10.0
68.457208217 12.0
68.470338500 10.0
68.483468782 18.0
68.496599065 14.0
68.509729348 17.0
68.522859630 10.0
68.535989913 14.0
68.549120196 17.0
68.562250478 20.0
68.575380761 20.0
68.588511044 15.0
68.601641326 14.0
68.614771609 14.0
68.627901892 23.0
68.641032174 22.0
68.654162457 24.0
68.667292740 22.0
68.680423022 23.0
68.693553305 10.0
68.706683588 14.0
68.719813870 16.0
68.732944153 17.0
68.746074436 11.0
68.759204718 18.0
68.772335001 13.0
68.785465284 17.0
68.798595566 23.0
68.811725849 16.0
68.824856132 18.0
68.837986414 13.0
68.851116697 20.0
68.864246980 16.0
68.877377262 20.0
68.890507545 15.0
68.903637828 18.0
68.916768111 13.0
68.929898393 24.0
68.943028676 8.0
68.956158959 19.0
68.969289241 16.0
68.982419524 15.0
68.995549807 17.0
69.008680089 11.0
69.021810372 18.0
69.034940655 22.0
69.048070937 22.0
69.061201220 16.0
69.074331503 23.0
69.087461785 18.0
69.100592068 19.0
69.113722351 18.0
69.126852633 16.0
69.139982916 24.0
69.153113199 28.0
69.166243481 20.0
69.179373764 14.0
69.192504047 19.0
69.205634329 15.0
69.218764612 15.0
69.231894895 25.0
69.245025177 14.0
69.258155460 15.0
69.271285743 17.0
69.284416025 13.0
69.297546308 11.0
69.310676591 14.0
69.323806873 29.0
69.336937156 25.0
69.350067439 18.0
69.363197722 15.0
69.376328004 13.0
69.389458287 9.0
69.402588570 22.0
69.415718852 21.0
69.428849135 14.0
69.441979418 19.0
69.455109700 12.0
69.468239983 15.0
69.481370266 11.0
69.494500548 20.0
69.507630831 22.0
69.520761114 19.0
69.533891396 15.0
69.547021679 12.0
69.560151962 14.0
69.573282244 16.0
69.586412527 16.0
69.599542810 21.0
69.612673092 18.0
69.625803375 19.0
69.638933658 21.0
69.652063940 18.0
69.665194223 22.0
69.678324506 16.0
69.691454788 21.0
69.704585071 20.0
69.717715354 19.0
69.730845636 21.0
69.743975919 18.0
69.757106202 19.0
69.770236484 20.0
69.783366767 14.0
69.796497050 17.0
69.809627333 19.0
69.822757615 9.0
69.835887898 19.0
69.849018181 13.0
69.862148463 16.0
69.875278746 13.0
69.888409029 14.0
69.901539311 14.0
69.914669594 16.0
69.927799877 21.0
69.940930159 21.0
69.954060442 10.0
69.967190725 18.0
69.980321007 19.0
69.993451290 13.0
