20.006465140 67.0
20.019595423 86.0
20.032725705 65.0
20.045855988 78.0
20.058986271 87.0
20.072116553 82.0
20.085246836 77.0
20.098377119 67.0
20.111507401 89.0
20.124637684 83.0
20.137767967 77.0
20.150898249 87.0
20.164028532 64.0
20.177158815 60.0
20.190289097 64.0
20.203419380 75.0
20.216549663 76.0
20.229679946 54.0
20.242810228 81.0
20.255940511 75.0
20.269070794 70.0
20.282201076 83.0
20.295331359 73.0
20.308461642 74.0
20.321591924 83.0
20.334722207 75.0
20.347852490 85.0
20.360982772 89.0
20.374113055 70.0
20.387243338 71.0
20.400373620 77.0
20.413503903 54.0
20.426634186 69.0
20.439764468 75.0
20.452894751 67.0
20.466025034 75.0
20.479155316 86.0
20.492285599 72.0
20.505415882 61.0
20.518546164 67.0
20.531676447 78.0
20.544806730 89.0
20.557937012 69.0
20.571067295 65.0
20.584197578 80.0
20.597327860 59.0
20.610458143 73.0
20.623588426 67.0
20.636718708 71.0
20.649848991 72.0
20.662979274 78.0
20.676109557 79.0
20.689239839 72.0
20.702370122 83.0
20.715500405 73.0
20.728630687 70.0
20.741760970 77.0
20.754891253 95.0
20.768021535 81.0
20.781151818 80.0
20.794282101 62.0
20.807412383 75.0
20.820542666 60.0
20.833672949 72.0
20.846803231 75.0
20.859933514 51.0
20.873063797 79.0
20.886194079 56.0
20.899324362 59.0
20.912454645 62.0
20.925584927 82.0
20.938715210 72.0
20.951845493 68.0
20.964975775 75.0
20.978106058 86.0
20.991236341 82.0
21.004366623 60.0
21.017496906 65.0
21.030627189 63.0
21.043757471 68.0
21.056887754 78.0
21.070018037 75.0
21.083148319 68.0
21.096278602 79.0
21.109408885 58.0
21.122539168 67.0
21.135669450 74.0
21.148799733 76.0
21.161930016 44.0
21.175060298 63.0
21.188190581 77.0
21.201320864 72.0
21.214451146 64.0
21.227581429 66.0
21.240711712 70.0
21.253841994 69.0
21.266972277 77.0
21.280102560 73.0
21.293232842 70.0
21.306363125 58.0
21.319493408 66.0
21.332623690 69.0
21.345753973 65.0
21.358884256 65.0
21.372014538 69.0
21.385144821 77.0
21.398275104 77.0
21.411405386 90.0
21.424535669 56.0
21.437665952 65.0
21.450796234 59.0
21.463926517 73.0
21.477056800 84.0
21.490187082 69.0
21.503317365 72.0
21.516447648 50.0
21.529577930 64.0
21.542708213 74.0
21.555838496 74.0
21.568968779 72.0
21.582099061 63.0
21.595229344 54.0
21.608359627 63.0
21.621489909 58.0
21.634620192 69.0
21.647750475 67.0
21.660880757 82.0
21.674011040 72.0
21.687141323 61.0
21.700271605 70.0
21.713401888 64.0
21.726532171 67.0
21.739662453 70.0
21.752792736 63.0
21.765923019 74.0
21.779053301 65.0
21.792183584 53.0
21.805313867 68.0
21.818444149 77.0
21.831574432 62.0
21.844704715 92.0
21.857834997 76.0
21.870965280 65.0
21.884095563 65.0
21.897225845 60.0
21.910356128 76.0
21.923486411 81.0
21.936616693 63.0
21.949746976 64.0
21.962877259 59.0
21.976007541 77.0
21.989137824 70.0
22.002268107 60.0
22.015398390 52.0
22.028528672 82.0
22.041658955 66.0
22.054789238 74.0
22.067919520 70.0
22.081049803 82.0
22.094180086 73.0
22.107310368 62.0
22.120440651 75.0
22.133570934 78.0
22.146701216 81.0
22.159831499 69.0
22.172961782 74.0
22.186092064 57.0
22.199222347 51.0
22.212352630 58.0
22.225482912 70.0
22.238613195 68.0
22.251743478 62.0
22.264873760 73.0
22.278004043 66.0
22.291134326 70.0
22.304264608 66.0
22.317394891 70.0
22.330525174 67.0
22.343655456 75.0
22.356785739 58.0
22.369916022 71.0
22.383046304 76.0
22.396176587 74.0
22.409306870 75.0
22.422437153 72.0
22.435567435 53.0
22.448697718 50.0
22.461828001 60.0
22.474958283 65.0
22.488088566 57.0
22.501218849 76.0
22.514349131 69.0
22.527479414 42.0
22.540609697 76.0
22.553739979 76.0
22.566870262 61.0
22.580000545 71.0
22.593130827 71.0
22.606261110 71.0
22.619391393 56.0
22.632521675 68.0
22.645651958 66.0
22.658782241 64.0
22.671912523 66.0
22.685042806 76.0
22.698173089 73.0
22.711303371 72.0
22.724433654 58.0
22.737563937 61.0
22.750694219 76.0
22.763824502 79.0
22.776954785 72.0
22.790085067 59.0
22.803215350 75.0
22.816345633 57.0
22.829475915 74.0
22.842606198 73.0
22.855736481 67.0
22.868866764 59.0
22.881997046 55.0
22.895127329 68.0
22.908257612 62.0
22.921387894 56.0
22.934518177 68.0
22.947648460 63.0
22.960778742 55.0
22.973909025 63.0
22.987039308 72.0
23.000169590 67.0
23.013299873 63.0
23.026430156 55.0
23.039560438 65.0
23.052690721 74.0
23.065821004 72.0
23.078951286 53.0
23.092081569 62.0
23.105211852 79.0
23.118342134 63.0
23.131472417 59.0
23.144602700 69.0
23.157732982 57.0
23.170863265 64.0
23.183993548 78.0
23.197123830 56.0
23.210254113 60.0
23.223384396 83.0
23.236514678 70.0
23.249644961 51.0
23.262775244 51.0
23.275905526 61.0
23.289035809 67.0
23.302166092 66.0
23.315296375 63.0
23.328426657 64.0
23.341556940 63.0
23.354687223 64.0
23.367817505 67.0
23.380947788 80.0
23.394078071 52.0
23.407208353 61.0
23.420338636 57.0
23.433468919 68.0
23.446599201 63.0
23.459729484 63.0
23.472859767 53.0
23.485990049 73.0
23.499120332 68.0
23.512250615 66.0
23.525380897 57.0
23.538511180 64.0
23.551641463 74.0
23.564771745 52.0
23.577902028 67.0
23.591032311 72.0
23.604162593 55.0
23.617292876 66.0
23.630423159 76.0
23.643553441 80.0
23.656683724 72.0
23.669814007 60.0
23.682944289 76.0
23.696074572 73.0
23.709204855 74.0
23.722335137 58.0
23.735465420 66.0
23.748595703 47.0
23.761725986 68.0
23.774856268 77.0
23.787986551 70.0
23.801116834 61.0
23.814247116 57.0
23.827377399 55.0
23.840507682 42.0
23.853637964 59.0
23.866768247 63.0
23.879898530 57.0
23.893028812 49.0
23.906159095 37.0
23.919289378 64.0
23.932419660 45.0
23.945549943 63.0
23.958680226 70.0
23.971810508 64.0
23.984940791 55.0
23.998071074 55.0
24.011201356 72.0
24.024331639 64.0
24.037461922 81.0
24.050592204 67.0
24.063722487 69.0
24.076852770 64.0
24.089983052 47.0
24.103113335 64.0
24.116243618 58.0
24.129373900 62.0
24.142504183 58.0
24.155634466 55.0
24.168764748 63.0
24.181895031 51.0
24.195025314 67.0
24.208155597 61.0
24.221285879 72.0
24.234416162 56.0
24.247546445 59.0
24.260676727 50.0
24.273807010 63.0
24.286937293 53.0
24.300067575 49.0
24.313197858 73.0
24.326328141 61.0
24.339458423 66.0
24.352588706 61.0
24.365718989 66.0
24.378849271 60.0
24.391979554 63.0
24.405109837 67.0
24.418240119 68.0
24.431370402 67.0
24.444500685 51.0
24.457630967 65.0
24.470761250 59.0
24.483891533 64.0
24.497021815 72.0
24.510152098 59.0
24.523282381 57.0
24.536412663 62.0
24.549542946 57.0
24.562673229 67.0
24.575803511 57.0
24.588933794 52.0
24.602064077 61.0
24.615194360 51.0
24.628324642 69.0
24.641454925 69.0
24.654585208 56.0
24.667715490 77.0
24.680845773 60.0
24.693976056 63.0
24.707106338 50.0
24.720236621 57.0
24.733366904 67.0
24.746497186 38.0
24.759627469 47.0
24.772757752 56.0
24.785888034 51.0
24.799018317 71.0
24.812148600 60.0
24.825278882 58.0
24.838409165 76.0
24.851539448 58.0
24.864669730 56.0
24.877800013 52.0
24.890930296 50.0
24.904060578 42.0
24.917190861 61.0
24.930321144 61.0
24.943451426 72.0
24.956581709 56.0
24.969711992 52.0
24.982842274 68.0
24.995972557 59.0
25.009102840 56.0
25.022233122 58.0
25.035363405 45.0
25.048493688 57.0
25.061623971 55.0
25.074754253 62.0
25.087884536 57.0
25.101014819 59.0
25.114145101 64.0
25.127275384 45.0
25.140405667 49.0
25.153535949 48.0
25.166666232 53.0
25.179796515 51.0
25.192926797 62.0
25.206057080 49.0
25.219187363 63.0
25.232317645 67.0
25.245447928 60.0
25.258578211 66.0
25.271708493 79.0
25.284838776 58.0
25.297969059 57.0
25.311099341 63.0
25.324229624 72.0
25.337359907 72.0
25.350490189 68.0
25.363620472 59.0
25.376750755 69.0
25.389881037 64.0
25.403011320 82.0
25.416141603 68.0
25.429271885 52.0
25.442402168 54.0
25.455532451 63.0
25.468662733 69.0
25.481793016 78.0
25.494923299 59.0
25.508053582 70.0
25.521183864 67.0
25.534314147 89.0
25.547444430 84.0
25.560574712 75.0
25.573704995 77.0
25.586835278 89.0
25.599965560 96.0
25.613095843 93.0
25.626226126 112.0
25.639356408 113.0
25.652486691 119.0
25.665616974 142.0
25.678747256 123.0
25.691877539 138.0
25.705007822 128.0
25.718138104 153.0
25.731268387 157.0
25.744398670 151.0
25.757528952 167.0
25.770659235 126.0
25.783789518 179.0
25.796919800 186.0
25.810050083 170.0
25.823180366 167.0
25.836310648 150.0
25.849440931 199.0
25.862571214 206.0
25.875701496 201.0
25.888831779 194.0
25.901962062 177.0
25.915092344 163.0
25.928222627 185.0
25.941352910 143.0
25.954483193 154.0
25.967613475 149.0
25.980743758 92.0
25.993874041 78.0
26.007004323 80.0
26.020134606 70.0
26.033264889 53.0
26.046395171 66.0
26.059525454 72.0
26.072655737 69.0
26.085786019 74.0
26.098916302 58.0
26.112046585 82.0
26.125176867 61.0
26.138307150 74.0
26.151437433 69.0
26.164567715 83.0
26.177697998 67.0
26.190828281 57.0
26.203958563 59.0
26.217088846 63.0
26.230219129 74.0
26.243349411 65.0
26.256479694 61.0
26.269609977 57.0
26.282740259 79.0
26.295870542 44.0
26.309000825 59.0
26.322131107 69.0
26.335261390 45.0
26.348391673 49.0
26.361521955 53.0
26.374652238 56.0
26.387782521 73.0
26.400912804 61.0
26.414043086 35.0
26.427173369 63.0
26.440303652 50.0
26.453433934 53.0
26.466564217 50.0
26.479694500 66.0
26.492824782 56.0
26.505955065 62.0
26.519085348 62.0
26.532215630 63.0
26.545345913 54.0
26.558476196 47.0
26.571606478 62.0
26.584736761 50.0
26.597867044 60.0
26.610997326 67.0
26.624127609 54.0
26.637257892 58.0
26.650388174 58.0
26.663518457 58.0
26.676648740 64.0
26.689779022 54.0
26.702909305 59.0
26.716039588 50.0
26.729169870 55.0
26.742300153 46.0
26.755430436 61.0
26.768560718 60.0
26.781691001 55.0
26.794821284 59.0
26.807951567 59.0
26.821081849 57.0
26.834212132 58.0
26.847342415 56.0
26.860472697 54.0
26.873602980 57.0
26.886733263 62.0
26.899863545 60.0
26.912993828 55.0
26.926124111 54.0
26.939254393 51.0
26.952384676 56.0
26.965514959 53.0
26.978645241 53.0
26.991775524 52.0
27.004905807 48.0
27.018036089 52.0
27.031166372 52.0
27.044296655 69.0
27.057426937 64.0
27.070557220 51.0
27.083687503 75.0
27.096817785 47.0
27.109948068 53.0
27.123078351 52.0
27.136208633 56.0
27.149338916 43.0
27.162469199 60.0
27.175599481 60.0
27.188729764 57.0
27.201860047 61.0
27.214990329 50.0
27.228120612 48.0
27.241250895 52.0
27.254381178 64.0
27.267511460 44.0
27.280641743 42.0
27.293772026 65.0
27.306902308 57.0
27.320032591 55.0
27.333162874 54.0
27.346293156 39.0
27.359423439 48.0
27.372553722 43.0
27.385684004 52.0
27.398814287 52.0
27.411944570 53.0
27.425074852 53.0
27.438205135 61.0
27.451335418 60.0
27.464465700 46.0
27.477595983 49.0
27.490726266 57.0
27.503856548 40.0
27.516986831 49.0
27.530117114 46.0
27.543247396 55.0
27.556377679 54.0
27.569507962 56.0
27.582638244 50.0
27.595768527 53.0
27.608898810 63.0
27.622029092 50.0
27.635159375 40.0
27.648289658 45.0
27.661419940 60.0
27.674550223 46.0
27.687680506 51.0
27.700810789 41.0
27.713941071 66.0
27.727071354 45.0
27.740201637 53.0
27.753331919 53.0
27.766462202 57.0
27.779592485 62.0
27.792722767 59.0
27.805853050 51.0
27.818983333 69.0
27.832113615 55.0
27.845243898 56.0
27.858374181 65.0
27.871504463 62.0
27.884634746 50.0
27.897765029 53.0
27.910895311 55.0
27.924025594 57.0
27.937155877 50.0
27.950286159 46.0
27.963416442 64.0
27.976546725 49.0
27.989677007 61.0
28.002807290 48.0
28.015937573 63.0
28.029067855 73.0
28.042198138 66.0
28.055328421 72.0
28.068458703 63.0
28.081588986 62.0
28.094719269 58.0
28.107849551 59.0
28.120979834 55.0
28.134110117 37.0
28.147240400 47.0
28.160370682 63.0
28.173500965 43.0
28.186631248 52.0
28.199761530 54.0
28.212891813 52.0
28.226022096 60.0
28.239152378 31.0
28.252282661 55.0
28.265412944 38.0
28.278543226 47.0
28.291673509 49.0
28.304803792 53.0
28.317934074 70.0
28.331064357 58.0
28.344194640 41.0
28.357324922 53.0
28.370455205 52.0
28.383585488 71.0
28.396715770 68.0
28.409846053 50.0
28.422976336 72.0
28.436106618 54.0
28.449236901 58.0
28.462367184 52.0
28.475497466 54.0
28.488627749 63.0
28.501758032 60.0
28.514888314 71.0
28.528018597 56.0
28.541148880 46.0
28.554279162 55.0
28.567409445 58.0
28.580539728 51.0
28.593670011 65.0
28.606800293 54.0
28.619930576 55.0
28.633060859 51.0
28.646191141 58.0
28.659321424 44.0
28.672451707 63.0
28.685581989 51.0
28.698712272 49.0
28.711842555 48.0
28.724972837 48.0
28.738103120 57.0
28.751233403 51.0
28.764363685 47.0
28.777493968 49.0
28.790624251 52.0
28.803754533 50.0
28.816884816 49.0
28.830015099 47.0
28.843145381 65.0
28.856275664 61.0
28.869405947 62.0
28.882536229 46.0
28.895666512 54.0
28.908796795 58.0
28.921927077 52.0
28.935057360 47.0
28.948187643 51.0
28.961317925 42.0
28.974448208 63.0
28.987578491 54.0
29.000708774 49.0
29.013839056 51.0
29.026969339 54.0
29.040099622 59.0
29.053229904 49.0
29.066360187 50.0
29.079490470 39.0
29.092620752 55.0
29.105751035 54.0
29.118881318 63.0
29.132011600 48.0
29.145141883 47.0
29.158272166 49.0
29.171402448 49.0
29.184532731 44.0
29.197663014 52.0
29.210793296 50.0
29.223923579 51.0
29.237053862 54.0
29.250184144 53.0
29.263314427 54.0
29.276444710 61.0
29.289574992 60.0
29.302705275 51.0
29.315835558 46.0
29.328965840 44.0
29.342096123 49.0
29.355226406 53.0
29.368356688 59.0
29.381486971 54.0
29.394617254 59.0
29.407747536 53.0
29.420877819 59.0
29.434008102 50.0
29.447138385 52.0
29.460268667 47.0
29.473398950 60.0
29.486529233 50.0
29.499659515 56.0
29.512789798 49.0
29.525920081 40.0
29.539050363 47.0
29.552180646 50.0
29.565310929 56.0
29.578441211 50.0
29.591571494 47.0
29.604701777 62.0
29.617832059 45.0
29.630962342 49.0
29.644092625 63.0
29.657222907 49.0
29.670353190 57.0
29.683483473 54.0
29.696613755 41.0
29.709744038 44.0
29.722874321 42.0
29.736004603 52.0
29.749134886 49.0
29.762265169 49.0
29.775395451 55.0
29.788525734 58.0
29.801656017 53.0
29.814786299 59.0
29.827916582 61.0
29.841046865 54.0
29.854177147 53.0
29.867307430 53.0
29.880437713 55.0
29.893567996 58.0
29.906698278 49.0
29.919828561 43.0
29.932958844 48.0
29.946089126 59.0
29.959219409 69.0
29.972349692 58.0
29.985479974 50.0
29.998610257 65.0
30.011740540 57.0
30.024870822 54.0
30.038001105 58.0
30.051131388 60.0
30.064261670 52.0
30.077391953 51.0
30.090522236 52.0
30.103652518 56.0
30.116782801 49.0
30.129913084 43.0
30.143043366 66.0
30.156173649 62.0
30.169303932 53.0
30.182434214 59.0
30.195564497 59.0
30.208694780 54.0
30.221825062 39.0
30.234955345 53.0
30.248085628 48.0
30.261215910 42.0
30.274346193 47.0
30.287476476 43.0
30.300606758 50.0
30.313737041 57.0
30.326867324 64.0
30.339997607 45.0
30.353127889 38.0
30.366258172 46.0
30.379388455 44.0
30.392518737 45.0
30.405649020 54.0
30.418779303 54.0
30.431909585 45.0
30.445039868 53.0
30.458170151 43.0
30.471300433 52.0
30.484430716 58.0
30.497560999 54.0
30.510691281 40.0
30.523821564 53.0
30.536951847 48.0
30.550082129 57.0
30.563212412 36.0
30.576342695 57.0
30.589472977 54.0
30.602603260 47.0
30.615733543 48.0
30.628863825 55.0
30.641994108 40.0
30.655124391 59.0
30.668254673 60.0
30.681384956 47.0
30.694515239 62.0
30.707645521 36.0
30.720775804 53.0
30.733906087 53.0
30.747036369 35.0
30.760166652 51.0
30.773296935 37.0
30.786427218 49.0
30.799557500 49.0
30.812687783 35.0
30.825818066 51.0
30.838948348 34.0
30.852078631 50.0
30.865208914 45.0
30.878339196 47.0
30.891469479 57.0
30.904599762 53.0
30.917730044 44.0
30.930860327 57.0
30.943990610 44.0
30.957120892 38.0
30.970251175 49.0
30.983381458 59.0
30.996511740 67.0
31.009642023 42.0
31.022772306 48.0
31.035902588 51.0
31.049032871 54.0
31.062163154 51.0
31.075293436 51.0
31.088423719 50.0
31.101554002 57.0
31.114684284 55.0
31.127814567 50.0
31.140944850 61.0
31.154075132 48.0
31.167205415 53.0
31.180335698 47.0
31.193465981 53.0
31.206596263 44.0
31.219726546 66.0
31.232856829 62.0
31.245987111 44.0
31.259117394 39.0
31.272247677 34.0
31.285377959 57.0
31.298508242 49.0
31.311638525 43.0
31.324768807 41.0
31.337899090 36.0
31.351029373 42.0
31.364159655 33.0
31.377289938 54.0
31.390420221 51.0
31.403550503 40.0
31.416680786 54.0
31.429811069 55.0
31.442941351 46.0
31.456071634 47.0
31.469201917 54.0
31.482332199 41.0
31.495462482 36.0
31.508592765 50.0
31.521723047 50.0
31.534853330 47.0
31.547983613 58.0
31.561113895 59.0
31.574244178 47.0
31.587374461 44.0
31.600504743 47.0
31.613635026 53.0
31.626765309 48.0
31.639895592 59.0
31.653025874 55.0
31.666156157 56.0
31.679286440 46.0
31.692416722 52.0
31.705547005 49.0
31.718677288 47.0
31.731807570 54.0
31.744937853 49.0
31.758068136 48.0
31.771198418 55.0
31.784328701 48.0
31.797458984 54.0
31.810589266 50.0
31.823719549 49.0
31.836849832 37.0
31.849980114 39.0
31.863110397 52.0
31.876240680 49.0
31.889370962 65.0
31.902501245 55.0
31.915631528 52.0
31.928761810 50.0
31.941892093 52.0
31.955022376 47.0
31.968152658 59.0
31.981282941 41.0
31.994413224 53.0
32.007543506 46.0
32.020673789 41.0
32.033804072 58.0
32.046934354 45.0
32.060064637 60.0
32.073194920 64.0
32.086325203 53.0
32.099455485 60.0
32.112585768 61.0
32.125716051 50.0
32.138846333 50.0
32.151976616 58.0
32.165106899 51.0
32.178237181 54.0
32.191367464 39.0
32.204497747 50.0
32.217628029 47.0
32.230758312 71.0
32.243888595 51.0
32.257018877 45.0
32.270149160 41.0
32.283279443 41.0
32.296409725 48.0
32.309540008 49.0
32.322670291 49.0
32.335800573 38.0
32.348930856 45.0
32.362061139 68.0
32.375191421 53.0
32.388321704 53.0
32.401451987 40.0
32.414582269 44.0
32.427712552 49.0
32.440842835 47.0
32.453973117 50.0
32.467103400 50.0
32.480233683 59.0
32.493363965 45.0
32.506494248 63.0
32.519624531 50.0
32.532754814 38.0
32.545885096 50.0
32.559015379 56.0
32.572145662 53.0
32.585275944 63.0
32.598406227 54.0
32.611536510 48.0
32.624666792 58.0
32.637797075 57.0
32.650927358 51.0
32.664057640 63.0
32.677187923 60.0
32.690318206 68.0
32.703448488 58.0
32.716578771 57.0
32.729709054 48.0
32.742839336 59.0
32.755969619 62.0
32.769099902 70.0
32.782230184 75.0
32.795360467 76.0
32.808490750 73.0
32.821621032 72.0
32.834751315 78.0
32.847881598 104.0
32.861011880 95.0
32.874142163 85.0
32.887272446 90.0
32.900402728 84.0
32.913533011 90.0
32.926663294 77.0
32.939793576 88.0
32.952923859 76.0
32.966054142 80.0
32.979184425 75.0
32.992314707 73.0
33.005444990 60.0
33.018575273 50.0
33.031705555 63.0
33.044835838 54.0
33.057966121 53.0
33.071096403 54.0
33.084226686 51.0
33.097356969 54.0
33.110487251 50.0
33.123617534 43.0
33.136747817 35.0
33.149878099 62.0
33.163008382 53.0
33.176138665 65.0
33.189268947 47.0
33.202399230 53.0
33.215529513 47.0
33.228659795 49.0
33.241790078 53.0
33.254920361 57.0
33.268050643 68.0
33.281180926 59.0
33.294311209 58.0
33.307441491 50.0
33.320571774 47.0
33.333702057 54.0
33.346832339 48.0
33.359962622 47.0
33.373092905 48.0
33.386223188 53.0
33.399353470 61.0
33.412483753 49.0
33.425614036 42.0
33.438744318 54.0
33.451874601 49.0
33.465004884 53.0
33.478135166 51.0
33.491265449 48.0
33.504395732 48.0
33.517526014 54.0
33.530656297 40.0
33.543786580 43.0
33.556916862 49.0
33.570047145 47.0
33.583177428 61.0
33.596307710 63.0
33.609437993 48.0
33.622568276 55.0
33.635698558 42.0
33.648828841 62.0
33.661959124 38.0
33.675089406 47.0
33.688219689 41.0
33.701349972 27.0
33.714480254 47.0
33.727610537 50.0
33.740740820 43.0
33.753871102 59.0
33.767001385 47.0
33.780131668 39.0
33.793261950 48.0
33.806392233 39.0
33.819522516 53.0
33.832652799 39.0
33.845783081 41.0
33.858913364 47.0
33.872043647 26.0
33.885173929 50.0
33.898304212 37.0
33.911434495 49.0
33.924564777 55.0
33.937695060 53.0
33.950825343 38.0
33.963955625 41.0
33.977085908 50.0
33.990216191 55.0
34.003346473 59.0
34.016476756 38.0
34.029607039 53.0
34.042737321 55.0
34.055867604 41.0
34.068997887 49.0
34.082128169 40.0
34.095258452 49.0
34.108388735 51.0
34.121519017 54.0
34.134649300 56.0
34.147779583 54.0
34.160909865 30.0
34.174040148 45.0
34.187170431 41.0
34.200300713 38.0
34.213430996 50.0
34.226561279 47.0
34.239691561 50.0
34.252821844 49.0
34.265952127 36.0
34.279082410 37.0
34.292212692 47.0
34.305342975 40.0
34.318473258 39.0
34.331603540 47.0
34.344733823 38.0
34.357864106 41.0
34.370994388 31.0
34.384124671 32.0
34.397254954 41.0
34.410385236 48.0
34.423515519 39.0
34.436645802 49.0
34.449776084 44.0
34.462906367 56.0
34.476036650 43.0
34.489166932 32.0
34.502297215 56.0
34.515427498 41.0
34.528557780 37.0
34.541688063 52.0
34.554818346 44.0
34.567948628 43.0
34.581078911 35.0
34.594209194 41.0
34.607339476 43.0
34.620469759 36.0
34.633600042 36.0
34.646730324 41.0
34.659860607 36.0
34.672990890 27.0
34.686121172 35.0
34.699251455 45.0
34.712381738 45.0
34.725512021 48.0
34.738642303 49.0
34.751772586 36.0
34.764902869 44.0
34.778033151 48.0
34.791163434 49.0
34.804293717 39.0
34.817423999 53.0
34.830554282 37.0
34.843684565 44.0
34.856814847 53.0
34.869945130 41.0
34.883075413 37.0
34.896205695 54.0
34.909335978 47.0
34.922466261 44.0
34.935596543 48.0
34.948726826 50.0
34.961857109 60.0
34.974987391 41.0
34.988117674 38.0
35.001247957 45.0
35.014378239 40.0
35.027508522 54.0
35.040638805 37.0
35.053769087 39.0
35.066899370 37.0
35.080029653 38.0
35.093159935 48.0
35.106290218 46.0
35.119420501 36.0
35.132550783 38.0
35.145681066 48.0
35.158811349 46.0
35.171941632 46.0
35.185071914 39.0
35.198202197 39.0
35.211332480 41.0
35.224462762 48.0
35.237593045 52.0
35.250723328 42.0
35.263853610 39.0
35.276983893 52.0
35.290114176 41.0
35.303244458 47.0
35.316374741 42.0
35.329505024 54.0
35.342635306 34.0
35.355765589 69.0
35.368895872 53.0
35.382026154 32.0
35.395156437 36.0
35.408286720 39.0
35.421417002 46.0
35.434547285 63.0
35.447677568 49.0
35.460807850 50.0
35.473938133 41.0
35.487068416 31.0
35.500198698 39.0
35.513328981 48.0
35.526459264 33.0
35.539589546 45.0
35.552719829 52.0
35.565850112 40.0
35.578980395 39.0
35.592110677 48.0
35.605240960 38.0
35.618371243 46.0
35.631501525 41.0
35.644631808 39.0
35.657762091 46.0
35.670892373 40.0
35.684022656 43.0
35.697152939 41.0
35.710283221 47.0
35.723413504 28.0
35.736543787 32.0
35.749674069 43.0
35.762804352 40.0
35.775934635 55.0
35.789064917 52.0
35.802195200 49.0
35.815325483 47.0
35.828455765 51.0
35.841586048 48.0
35.854716331 71.0
35.867846613 42.0
35.880976896 53.0
35.894107179 42.0
35.907237461 41.0
35.920367744 37.0
35.933498027 46.0
35.946628309 52.0
35.959758592 39.0
35.972888875 41.0
35.986019157 39.0
35.999149440 41.0
36.012279723 47.0
36.025410006 47.0
36.038540288 55.0
36.051670571 57.0
36.064800854 51.0
36.077931136 38.0
36.091061419 44.0
36.104191702 53.0
36.117321984 52.0
36.130452267 45.0
36.143582550 50.0
36.156712832 48.0
36.169843115 44.0
36.182973398 54.0
36.196103680 54.0
36.209233963 62.0
36.222364246 43.0
36.235494528 54.0
36.248624811 47.0
36.261755094 48.0
36.274885376 36.0
36.288015659 63.0
36.301145942 41.0
36.314276224 45.0
36.327406507 52.0
36.340536790 72.0
36.353667072 67.0
36.366797355 63.0
36.379927638 51.0
36.393057920 60.0
36.406188203 53.0
36.419318486 61.0
36.432448768 77.0
36.445579051 73.0
36.458709334 71.0
36.471839617 71.0
36.484969899 79.0
36.498100182 78.0
36.511230465 89.0
36.524360747 78.0
36.537491030 85.0
36.550621313 96.0
36.563751595 96.0
36.576881878 137.0
36.590012161 137.0
36.603142443 142.0
36.616272726 137.0
36.629403009 177.0
36.642533291 225.0
36.655663574 236.0
36.668793857 247.0
36.681924139 308.0
36.695054422 388.0
36.708184705 433.0
36.721314987 551.0
36.734445270 645.0
36.747575553 743.0
36.760705835 825.0
36.773836118 947.0
36.786966401 928.0
36.800096683 911.0
36.813226966 872.0
36.826357249 799.0
36.839487531 843.0
36.852617814 873.0
36.865748097 872.0
36.878878379 735.0
36.892008662 728.0
36.905138945 677.0
36.918269228 638.0
36.931399510 576.0
36.944529793 527.0
36.957660076 470.0
36.970790358 400.0
36.983920641 366.0
36.997050924 317.0
37.010181206 256.0
37.023311489 271.0
37.036441772 225.0
37.049572054 180.0
37.062702337 139.0
37.075832620 118.0
37.088962902 120.0
37.102093185 101.0
37.115223468 81.0
37.128353750 76.0
37.141484033 71.0
37.154614316 68.0
37.167744598 68.0
37.180874881 51.0
37.194005164 52.0
37.207135446 75.0
37.220265729 61.0
37.233396012 69.0
37.246526294 58.0
37.259656577 66.0
37.272786860 70.0
37.285917142 67.0
37.299047425 61.0
37.312177708 48.0
37.325307990 48.0
37.338438273 47.0
37.351568556 58.0
37.364698839 41.0
37.377829121 49.0
37.390959404 52.0
37.404089687 61.0
37.417219969 38.0
37.430350252 49.0
37.443480535 47.0
37.456610817 41.0
37.469741100 52.0
37.482871383 43.0
37.496001665 59.0
37.509131948 48.0
37.522262231 54.0
37.535392513 54.0
37.548522796 52.0
37.561653079 53.0
37.574783361 51.0
37.587913644 35.0
37.601043927 48.0
37.614174209 47.0
37.627304492 48.0
37.640434775 45.0
37.653565057 43.0
37.666695340 46.0
37.679825623 50.0
37.692955905 32.0
37.706086188 51.0
37.719216471 46.0
37.732346753 41.0
37.745477036 42.0
37.758607319 57.0
37.771737602 33.0
37.784867884 61.0
37.797998167 36.0
37.811128450 42.0
37.824258732 32.0
37.837389015 48.0
37.850519298 47.0
37.863649580 49.0
37.876779863 50.0
37.889910146 53.0
37.903040428 32.0
37.916170711 42.0
37.929300994 43.0
37.942431276 26.0
37.955561559 38.0
37.968691842 50.0
37.981822124 46.0
37.994952407 50.0
38.008082690 49.0
38.021212972 51.0
38.034343255 37.0
38.047473538 40.0
38.060603820 46.0
38.073734103 40.0
38.086864386 45.0
38.099994668 34.0
38.113124951 40.0
38.126255234 49.0
38.139385516 52.0
38.152515799 50.0
38.165646082 49.0
38.178776364 42.0
38.191906647 42.0
38.205036930 41.0
38.218167213 44.0
38.231297495 34.0
38.244427778 47.0
38.257558061 38.0
38.270688343 46.0
38.283818626 41.0
38.296948909 45.0
38.310079191 40.0
38.323209474 44.0
38.336339757 35.0
38.349470039 42.0
38.362600322 44.0
38.375730605 45.0
38.388860887 46.0
38.401991170 42.0
38.415121453 40.0
38.428251735 39.0
38.441382018 42.0
38.454512301 47.0
38.467642583 34.0
38.480772866 63.0
38.493903149 38.0
38.507033431 41.0
38.520163714 24.0
38.533293997 49.0
38.546424279 23.0
38.559554562 53.0
38.572684845 43.0
38.585815127 43.0
38.598945410 49.0
38.612075693 48.0
38.625205975 34.0
38.638336258 44.0
38.651466541 35.0
38.664596824 33.0
38.677727106 42.0
38.690857389 30.0
38.703987672 37.0
38.717117954 32.0
38.730248237 35.0
38.743378520 35.0
38.756508802 49.0
38.769639085 41.0
38.782769368 46.0
38.795899650 32.0
38.809029933 45.0
38.822160216 26.0
38.835290498 45.0
38.848420781 42.0
38.861551064 36.0
38.874681346 52.0
38.887811629 29.0
38.900941912 26.0
38.914072194 29.0
38.927202477 49.0
38.940332760 59.0
38.953463042 48.0
38.966593325 50.0
38.979723608 41.0
38.992853890 42.0
39.005984173 20.0
39.019114456 33.0
39.032244738 49.0
39.045375021 34.0
39.058505304 48.0
39.071635586 36.0
39.084765869 37.0
39.097896152 43.0
39.111026435 43.0
39.124156717 46.0
39.137287000 38.0
39.150417283 27.0
39.163547565 45.0
39.176677848 30.0
39.189808131 42.0
39.202938413 31.0
39.216068696 34.0
39.229198979 40.0
39.242329261 27.0
39.255459544 39.0
39.268589827 36.0
39.281720109 38.0
39.294850392 36.0
39.307980675 44.0
39.321110957 42.0
39.334241240 35.0
39.347371523 40.0
39.360501805 48.0
39.373632088 46.0
39.386762371 44.0
39.399892653 45.0
39.413022936 44.0
39.426153219 46.0
39.439283501 26.0
39.452413784 44.0
39.465544067 37.0
39.478674349 43.0
39.491804632 36.0
39.504934915 43.0
39.518065197 39.0
39.531195480 31.0
39.544325763 32.0
39.557456046 40.0
39.570586328 41.0
39.583716611 35.0
39.596846894 43.0
39.609977176 39.0
39.623107459 29.0
39.636237742 40.0
39.649368024 36.0
39.662498307 27.0
39.675628590 45.0
39.688758872 43.0
39.701889155 33.0
39.715019438 48.0
39.728149720 43.0
39.741280003 37.0
39.754410286 58.0
39.767540568 48.0
39.780670851 50.0
39.793801134 49.0
39.806931416 43.0
39.820061699 53.0
39.833191982 57.0
39.846322264 34.0
39.859452547 53.0
39.872582830 40.0
39.885713112 50.0
39.898843395 49.0
39.911973678 64.0
39.925103960 59.0
39.938234243 50.0
39.951364526 51.0
39.964494809 50.0
39.977625091 49.0
39.990755374 29.0
40.003885657 47.0
40.017015939 30.0
40.030146222 49.0
40.043276505 54.0
40.056406787 49.0
40.069537070 49.0
40.082667353 28.0
40.095797635 52.0
40.108927918 49.0
40.122058201 45.0
40.135188483 48.0
40.148318766 52.0
40.161449049 51.0
40.174579331 41.0
40.187709614 49.0
40.200839897 60.0
40.213970179 40.0
40.227100462 50.0
40.240230745 44.0
40.253361027 41.0
40.266491310 39.0
40.279621593 44.0
40.292751875 34.0
40.305882158 34.0
40.319012441 37.0
40.332142723 35.0
40.345273006 35.0
40.358403289 36.0
40.371533571 37.0
40.384663854 42.0
40.397794137 41.0
40.410924420 46.0
40.424054702 37.0
40.437184985 59.0
40.450315268 39.0
40.463445550 41.0
40.476575833 40.0
40.489706116 33.0
40.502836398 33.0
40.515966681 30.0
40.529096964 46.0
40.542227246 43.0
40.555357529 27.0
40.568487812 39.0
40.581618094 35.0
40.594748377 41.0
40.607878660 38.0
40.621008942 41.0
40.634139225 35.0
40.647269508 49.0
40.660399790 43.0
40.673530073 42.0
40.686660356 50.0
40.699790638 42.0
40.712920921 36.0
40.726051204 33.0
40.739181486 35.0
40.752311769 35.0
40.765442052 31.0
40.778572334 42.0
40.791702617 48.0
40.804832900 40.0
40.817963182 46.0
40.831093465 39.0
40.844223748 36.0
40.857354031 44.0
40.870484313 33.0
40.883614596 38.0
40.896744879 33.0
40.909875161 34.0
40.923005444 38.0
40.936135727 36.0
40.949266009 41.0
40.962396292 36.0
40.975526575 43.0
40.988656857 38.0
41.001787140 45.0
41.014917423 52.0
41.028047705 42.0
41.041177988 35.0
41.054308271 45.0
41.067438553 48.0
41.080568836 53.0
41.093699119 35.0
41.106829401 44.0
41.119959684 40.0
41.133089967 39.0
41.146220249 43.0
41.159350532 51.0
41.172480815 41.0
41.185611097 36.0
41.198741380 44.0
41.211871663 47.0
41.225001945 56.0
41.238132228 57.0
41.251262511 54.0
41.264392793 57.0
41.277523076 44.0
41.290653359 31.0
41.303783642 28.0
41.316913924 47.0
41.330044207 43.0
41.343174490 37.0
41.356304772 44.0
41.369435055 43.0
41.382565338 35.0
41.395695620 37.0
41.408825903 34.0
41.421956186 37.0
41.435086468 31.0
41.448216751 36.0
41.461347034 36.0
41.474477316 46.0
41.487607599 46.0
41.500737882 37.0
41.513868164 45.0
41.526998447 48.0
41.540128730 37.0
41.553259012 35.0
41.566389295 36.0
41.579519578 33.0
41.592649860 41.0
41.605780143 35.0
41.618910426 41.0
41.632040708 34.0
41.645170991 39.0
41.658301274 36.0
41.671431556 41.0
41.684561839 38.0
41.697692122 41.0
41.710822404 45.0
41.723952687 53.0
41.737082970 41.0
41.750213253 35.0
41.763343535 42.0
41.776473818 39.0
41.789604101 38.0
41.802734383 31.0
41.815864666 26.0
41.828994949 45.0
41.842125231 29.0
41.855255514 34.0
41.868385797 48.0
41.881516079 40.0
41.894646362 39.0
41.907776645 33.0
41.920906927 34.0
41.934037210 43.0
41.947167493 29.0
41.960297775 40.0
41.973428058 32.0
41.986558341 37.0
41.999688623 36.0
42.012818906 34.0
42.025949189 28.0
42.039079471 42.0
42.052209754 45.0
42.065340037 37.0
42.078470319 38.0
42.091600602 40.0
42.104730885 47.0
42.117861167 26.0
42.130991450 43.0
42.144121733 47.0
42.157252016 27.0
42.170382298 30.0
42.183512581 45.0
42.196642864 52.0
42.209773146 45.0
42.222903429 37.0
42.236033712 37.0
42.249163994 40.0
42.262294277 28.0
42.275424560 29.0
42.288554842 30.0
42.301685125 31.0
42.314815408 30.0
42.327945690 45.0
42.341075973 29.0
42.354206256 40.0
42.367336538 30.0
42.380466821 40.0
42.393597104 49.0
42.406727386 31.0
42.419857669 45.0
42.432987952 31.0
42.446118234 30.0
42.459248517 47.0
42.472378800 51.0
42.485509082 40.0
42.498639365 34.0
42.511769648 37.0
42.524899930 33.0
42.538030213 36.0
42.551160496 45.0
42.564290778 43.0
42.577421061 44.0
42.590551344 42.0
42.603681627 37.0
42.616811909 43.0
42.629942192 30.0
42.643072475 42.0
42.656202757 35.0
42.669333040 38.0
42.682463323 37.0
42.695593605 37.0
42.708723888 45.0
42.721854171 41.0
42.734984453 24.0
42.748114736 31.0
42.761245019 32.0
42.774375301 36.0
42.787505584 27.0
42.800635867 26.0
42.813766149 43.0
42.826896432 31.0
42.840026715 39.0
42.853156997 45.0
42.866287280 45.0
42.879417563 42.0
42.892547845 47.0
42.905678128 32.0
42.918808411 37.0
42.931938693 38.0
42.945068976 29.0
42.958199259 33.0
42.971329541 35.0
42.984459824 32.0
42.997590107 30.0
43.010720389 41.0
43.023850672 40.0
43.036980955 36.0
43.050111238 29.0
43.063241520 32.0
43.076371803 32.0
43.089502086 44.0
43.102632368 31.0
43.115762651 35.0
43.128892934 33.0
43.142023216 37.0
43.155153499 37.0
43.168283782 24.0
43.181414064 34.0
43.194544347 34.0
43.207674630 31.0
43.220804912 36.0
43.233935195 36.0
43.247065478 42.0
43.260195760 30.0
43.273326043 44.0
43.286456326 31.0
43.299586608 36.0
43.312716891 29.0
43.325847174 38.0
43.338977456 28.0
43.352107739 28.0
43.365238022 31.0
43.378368304 38.0
43.391498587 39.0
43.404628870 37.0
43.417759152 42.0
43.430889435 33.0
43.444019718 41.0
43.457150000 33.0
43.470280283 26.0
43.483410566 43.0
43.496540849 32.0
43.509671131 33.0
43.522801414 48.0
43.535931697 47.0
43.549061979 40.0
43.562192262 32.0
43.575322545 48.0
43.588452827 34.0
43.601583110 40.0
43.614713393 33.0
43.627843675 38.0
43.640973958 37.0
43.654104241 34.0
43.667234523 27.0
43.680364806 35.0
43.693495089 38.0
43.706625371 50.0
43.719755654 38.0
43.732885937 30.0
43.746016219 36.0
43.759146502 26.0
43.772276785 28.0
43.785407067 17.0
43.798537350 40.0
43.811667633 41.0
43.824797915 36.0
43.837928198 28.0
43.851058481 33.0
43.864188763 38.0
43.877319046 38.0
43.890449329 47.0
43.903579611 29.0
43.916709894 38.0
43.929840177 42.0
43.942970460 34.0
43.956100742 22.0
43.969231025 43.0
43.982361308 41.0
43.995491590 39.0
44.008621873 28.0
44.021752156 38.0
44.034882438 37.0
44.048012721 32.0
44.061143004 38.0
44.074273286 35.0
44.087403569 29.0
44.100533852 33.0
44.113664134 36.0
44.126794417 31.0
44.139924700 31.0
44.153054982 35.0
44.166185265 44.0
44.179315548 46.0
44.192445830 31.0
44.205576113 37.0
44.218706396 34.0
44.231836678 33.0
44.244966961 44.0
44.258097244 43.0
44.271227526 31.0
44.284357809 32.0
44.297488092 38.0
44.310618374 43.0
44.323748657 37.0
44.336878940 31.0
44.350009223 39.0
44.363139505 29.0
44.376269788 28.0
44.389400071 26.0
44.402530353 28.0
44.415660636 40.0
44.428790919 24.0
44.441921201 33.0
44.455051484 38.0
44.468181767 35.0
44.481312049 38.0
44.494442332 51.0
44.507572615 30.0
44.520702897 39.0
44.533833180 28.0
44.546963463 35.0
44.560093745 32.0
44.573224028 36.0
44.586354311 39.0
44.599484593 37.0
44.612614876 43.0
44.625745159 47.0
44.638875441 55.0
44.652005724 37.0
44.665136007 42.0
44.678266289 41.0
44.691396572 40.0
44.704526855 28.0
44.717657137 41.0
44.730787420 42.0
44.743917703 51.0
44.757047985 23.0
44.770178268 42.0
44.783308551 38.0
44.796438834 43.0
44.809569116 41.0
44.822699399 38.0
44.835829682 35.0
44.848959964 27.0
44.862090247 30.0
44.875220530 40.0
44.888350812 43.0
44.901481095 33.0
44.914611378 31.0
44.927741660 36.0
44.940871943 29.0
44.954002226 48.0
44.967132508 54.0
44.980262791 23.0
44.993393074 36.0
45.006523356 52.0
45.019653639 41.0
45.032783922 46.0
45.045914204 45.0
45.059044487 42.0
45.072174770 36.0
45.085305052 45.0
45.098435335 46.0
45.111565618 55.0
45.124695900 42.0
45.137826183 52.0
45.150956466 48.0
45.164086748 42.0
45.177217031 47.0
45.190347314 37.0
45.203477596 39.0
45.216607879 43.0
45.229738162 44.0
45.242868445 39.0
45.255998727 38.0
45.269129010 56.0
45.282259293 64.0
45.295389575 43.0
45.308519858 56.0
45.321650141 46.0
45.334780423 64.0
45.347910706 69.0
45.361040989 70.0
45.374171271 84.0
45.387301554 94.0
45.400431837 104.0
45.413562119 123.0
45.426692402 138.0
45.439822685 145.0
45.452952967 190.0
45.466083250 266.0
45.479213533 270.0
45.492343815 336.0
45.505474098 344.0
45.518604381 351.0
45.531734663 354.0
45.544864946 296.0
45.557995229 242.0
45.571125511 206.0
45.584255794 211.0
45.597386077 184.0
45.610516359 218.0
45.623646642 200.0
45.636776925 182.0
45.649907207 129.0
45.663037490 113.0
45.676167773 97.0
45.689298056 70.0
45.702428338 64.0
45.715558621 84.0
45.728688904 64.0
45.741819186 59.0
45.754949469 60.0
45.768079752 54.0
45.781210034 47.0
45.794340317 37.0
45.807470600 37.0
45.820600882 44.0
45.833731165 48.0
45.846861448 36.0
45.859991730 27.0
45.873122013 42.0
45.886252296 38.0
45.899382578 38.0
45.912512861 44.0
45.925643144 53.0
45.938773426 34.0
45.951903709 33.0
45.965033992 38.0
45.978164274 41.0
45.991294557 52.0
46.004424840 39.0
46.017555122 40.0
46.030685405 39.0
46.043815688 44.0
46.056945970 31.0
46.070076253 43.0
46.083206536 30.0
46.096336819 31.0
46.109467101 20.0
46.122597384 47.0
46.135727667 40.0
46.148857949 35.0
46.161988232 31.0
46.175118515 37.0
46.188248797 44.0
46.201379080 36.0
46.214509363 49.0
46.227639645 48.0
46.240769928 34.0
46.253900211 43.0
46.267030493 34.0
46.280160776 36.0
46.293291059 56.0
46.306421341 29.0
46.319551624 33.0
46.332681907 33.0
46.345812189 31.0
46.358942472 37.0
46.372072755 38.0
46.385203037 44.0
46.398333320 36.0
46.411463603 41.0
46.424593885 36.0
46.437724168 34.0
46.450854451 31.0
46.463984733 34.0
46.477115016 36.0
46.490245299 33.0
46.503375581 31.0
46.516505864 39.0
46.529636147 44.0
46.542766430 44.0
46.555896712 38.0
46.569026995 34.0
46.582157278 36.0
46.595287560 32.0
46.608417843 24.0
46.621548126 37.0
46.634678408 42.0
46.647808691 23.0
46.660938974 29.0
46.674069256 33.0
46.687199539 26.0
46.700329822 24.0
46.713460104 32.0
46.726590387 28.0
46.739720670 27.0
46.752850952 26.0
46.765981235 34.0
46.779111518 34.0
46.792241800 26.0
46.805372083 33.0
46.818502366 35.0
46.831632648 20.0
46.844762931 34.0
46.857893214 25.0
46.871023496 42.0
46.884153779 29.0
46.897284062 33.0
46.910414344 21.0
46.923544627 24.0
46.936674910 33.0
46.949805192 29.0
46.962935475 34.0
46.976065758 32.0
46.989196041 34.0
47.002326323 26.0
47.015456606 35.0
47.028586889 33.0
47.041717171 38.0
47.054847454 37.0
47.067977737 26.0
47.081108019 36.0
47.094238302 26.0
47.107368585 25.0
47.120498867 35.0
47.133629150 37.0
47.146759433 41.0
47.159889715 26.0
47.173019998 31.0
47.186150281 37.0
47.199280563 35.0
47.212410846 34.0
47.225541129 37.0
47.238671411 30.0
47.251801694 35.0
47.264931977 35.0
47.278062259 41.0
47.291192542 40.0
47.304322825 28.0
47.317453107 38.0
47.330583390 45.0
47.343713673 40.0
47.356843955 34.0
47.369974238 37.0
47.383104521 38.0
47.396234803 31.0
47.409365086 35.0
47.422495369 58.0
47.435625652 37.0
47.448755934 33.0
47.461886217 42.0
47.475016500 34.0
47.488146782 38.0
47.501277065 37.0
47.514407348 33.0
47.527537630 30.0
47.540667913 29.0
47.553798196 32.0
47.566928478 42.0
47.580058761 28.0
47.593189044 31.0
47.606319326 39.0
47.619449609 45.0
47.632579892 32.0
47.645710174 31.0
47.658840457 31.0
47.671970740 37.0
47.685101022 41.0
47.698231305 42.0
47.711361588 38.0
47.724491870 36.0
47.737622153 43.0
47.750752436 49.0
47.763882718 46.0
47.777013001 34.0
47.790143284 45.0
47.803273566 36.0
47.816403849 45.0
47.829534132 31.0
47.842664414 15.0
47.855794697 46.0
47.868924980 37.0
47.882055263 39.0
47.895185545 26.0
47.908315828 30.0
47.921446111 28.0
47.934576393 41.0
47.947706676 21.0
47.960836959 33.0
47.973967241 29.0
47.987097524 37.0
48.000227807 24.0
48.013358089 33.0
48.026488372 41.0
48.039618655 32.0
48.052748937 41.0
48.065879220 39.0
48.079009503 28.0
48.092139785 30.0
48.105270068 36.0
48.118400351 30.0
48.131530633 31.0
48.144660916 37.0
48.157791199 25.0
48.170921481 23.0
48.184051764 31.0
48.197182047 29.0
48.210312329 36.0
48.223442612 36.0
48.236572895 47.0
48.249703177 42.0
48.262833460 38.0
48.275963743 26.0
48.289094026 32.0
48.302224308 29.0
48.315354591 40.0
48.328484874 28.0
48.341615156 23.0
48.354745439 38.0
48.367875722 34.0
48.381006004 34.0
48.394136287 36.0
48.407266570 42.0
48.420396852 33.0
48.433527135 46.0
48.446657418 61.0
48.459787700 36.0
48.472917983 28.0
48.486048266 23.0
48.499178548 32.0
48.512308831 30.0
48.525439114 26.0
48.538569396 34.0
48.551699679 29.0
48.564829962 26.0
48.577960244 43.0
48.591090527 27.0
48.604220810 29.0
48.617351092 33.0
48.630481375 22.0
48.643611658 32.0
48.656741940 26.0
48.669872223 27.0
48.683002506 37.0
48.696132788 37.0
48.709263071 54.0
48.722393354 41.0
48.735523637 35.0
48.748653919 31.0
48.761784202 29.0
48.774914485 35.0
48.788044767 38.0
48.801175050 33.0
48.814305333 38.0
48.827435615 32.0
48.840565898 36.0
48.853696181 28.0
48.866826463 40.0
48.879956746 32.0
48.893087029 24.0
48.906217311 24.0
48.919347594 38.0
48.932477877 48.0
48.945608159 45.0
48.958738442 37.0
48.971868725 29.0
48.984999007 33.0
48.998129290 30.0
49.011259573 18.0
49.024389855 38.0
49.037520138 36.0
49.050650421 20.0
49.063780703 34.0
49.076910986 32.0
49.090041269 28.0
49.103171551 30.0
49.116301834 35.0
49.129432117 38.0
49.142562399 40.0
49.155692682 25.0
49.168822965 33.0
49.181953248 36.0
49.195083530 34.0
49.208213813 48.0
49.221344096 29.0
49.234474378 25.0
49.247604661 32.0
49.260734944 24.0
49.273865226 48.0
49.286995509 36.0
49.300125792 26.0
49.313256074 26.0
49.326386357 38.0
49.339516640 41.0
49.352646922 32.0
49.365777205 40.0
49.378907488 31.0
49.392037770 38.0
49.405168053 28.0
49.418298336 34.0
49.431428618 27.0
49.444558901 34.0
49.457689184 26.0
49.470819466 24.0
49.483949749 35.0
49.497080032 25.0
49.510210314 36.0
49.523340597 42.0
49.536470880 46.0
49.549601162 33.0
49.562731445 25.0
49.575861728 29.0
49.588992010 38.0
49.602122293 33.0
49.615252576 28.0
49.628382859 25.0
49.641513141 37.0
49.654643424 22.0
49.667773707 34.0
49.680903989 36.0
49.694034272 33.0
49.707164555 35.0
49.720294837 26.0
49.733425120 31.0
49.746555403 29.0
49.759685685 20.0
49.772815968 24.0
49.785946251 29.0
49.799076533 32.0
49.812206816 38.0
49.825337099 31.0
49.838467381 28.0
49.851597664 36.0
49.864727947 26.0
49.877858229 34.0
49.890988512 34.0
49.904118795 29.0
49.917249077 46.0
49.930379360 40.0
49.943509643 26.0
49.956639925 39.0
49.969770208 31.0
49.982900491 40.0
49.996030773 37.0
50.009161056 45.0
50.022291339 22.0
50.035421621 41.0
50.048551904 31.0
50.061682187 28.0
50.074812470 19.0
50.087942752 34.0
50.101073035 33.0
50.114203318 28.0
50.127333600 27.0
50.140463883 27.0
50.153594166 40.0
50.166724448 31.0
50.179854731 28.0
50.192985014 38.0
50.206115296 28.0
50.219245579 33.0
50.232375862 33.0
50.245506144 43.0
50.258636427 34.0
50.271766710 35.0
50.284896992 28.0
50.298027275 33.0
50.311157558 46.0
50.324287840 28.0
50.337418123 36.0
50.350548406 28.0
50.363678688 33.0
50.376808971 31.0
50.389939254 27.0
50.403069536 36.0
50.416199819 34.0
50.429330102 26.0
50.442460384 38.0
50.455590667 29.0
50.468720950 30.0
50.481851233 31.0
50.494981515 32.0
50.508111798 36.0
50.521242081 32.0
50.534372363 21.0
50.547502646 41.0
50.560632929 37.0
50.573763211 23.0
50.586893494 27.0
50.600023777 26.0
50.613154059 40.0
50.626284342 31.0
50.639414625 33.0
50.652544907 31.0
50.665675190 28.0
50.678805473 38.0
50.691935755 34.0
50.705066038 40.0
50.718196321 32.0
50.731326603 29.0
50.744456886 29.0
50.757587169 35.0
50.770717451 34.0
50.783847734 35.0
50.796978017 25.0
50.810108299 30.0
50.823238582 38.0
50.836368865 40.0
50.849499147 36.0
50.862629430 34.0
50.875759713 38.0
50.888889995 31.0
50.902020278 42.0
50.915150561 34.0
50.928280844 31.0
50.941411126 34.0
50.954541409 32.0
50.967671692 38.0
50.980801974 31.0
50.993932257 42.0
51.007062540 27.0
51.020192822 42.0
51.033323105 21.0
51.046453388 20.0
51.059583670 32.0
51.072713953 36.0
51.085844236 40.0
51.098974518 30.0
51.112104801 39.0
51.125235084 31.0
51.138365366 37.0
51.151495649 35.0
51.164625932 31.0
51.177756214 29.0
51.190886497 23.0
51.204016780 34.0
51.217147062 27.0
51.230277345 19.0
51.243407628 24.0
51.256537910 32.0
51.269668193 36.0
51.282798476 39.0
51.295928758 34.0
51.309059041 27.0
51.322189324 22.0
51.335319606 34.0
51.348449889 27.0
51.361580172 30.0
51.374710455 32.0
51.387840737 21.0
51.400971020 29.0
51.414101303 22.0
51.427231585 33.0
51.440361868 27.0
51.453492151 25.0
51.466622433 30.0
51.479752716 39.0
51.492882999 29.0
51.506013281 29.0
51.519143564 35.0
51.532273847 35.0
51.545404129 36.0
51.558534412 41.0
51.571664695 30.0
51.584794977 33.0
51.597925260 24.0
51.611055543 15.0
51.624185825 35.0
51.637316108 33.0
51.650446391 43.0
51.663576673 28.0
51.676706956 25.0
51.689837239 25.0
51.702967521 38.0
51.716097804 22.0
51.729228087 29.0
51.742358369 36.0
51.755488652 26.0
51.768618935 27.0
51.781749217 29.0
51.794879500 41.0
51.808009783 19.0
51.821140066 36.0
51.834270348 16.0
51.847400631 33.0
51.860530914 25.0
51.873661196 26.0
51.886791479 24.0
51.899921762 24.0
51.913052044 39.0
51.926182327 28.0
51.939312610 31.0
51.952442892 25.0
51.965573175 38.0
51.978703458 30.0
51.991833740 39.0
52.004964023 35.0
52.018094306 31.0
52.031224588 24.0
52.044354871 41.0
52.057485154 39.0
52.070615436 37.0
52.083745719 27.0
52.096876002 37.0
52.110006284 26.0
52.123136567 30.0
52.136266850 37.0
52.149397132 31.0
52.162527415 31.0
52.175657698 34.0
52.188787980 30.0
52.201918263 32.0
52.215048546 29.0
52.228178828 26.0
52.241309111 38.0
52.254439394 25.0
52.267569677 41.0
52.280699959 39.0
52.293830242 34.0
52.306960525 29.0
52.320090807 38.0
52.333221090 30.0
52.346351373 44.0
52.359481655 39.0
52.372611938 40.0
52.385742221 42.0
52.398872503 28.0
52.412002786 40.0
52.425133069 43.0
52.438263351 29.0
52.451393634 44.0
52.464523917 23.0
52.477654199 39.0
52.490784482 32.0
52.503914765 46.0
52.517045047 55.0
52.530175330 53.0
52.543305613 45.0
52.556435895 45.0
52.569566178 47.0
52.582696461 59.0
52.595826743 49.0
52.608957026 67.0
52.622087309 67.0
52.635217591 58.0
52.648347874 70.0
52.661478157 74.0
52.674608440 77.0
52.687738722 78.0
52.700869005 91.0
52.713999288 108.0
52.727129570 104.0
52.740259853 88.0
52.753390136 110.0
52.766520418 81.0
52.779650701 108.0
52.792780984 108.0
52.805911266 113.0
52.819041549 91.0
52.832171832 124.0
52.845302114 108.0
52.858432397 102.0
52.871562680 113.0
52.884692962 119.0
52.897823245 119.0
52.910953528 106.0
52.924083810 91.0
52.937214093 99.0
52.950344376 101.0
52.963474658 116.0
52.976604941 125.0
52.989735224 118.0
53.002865506 104.0
53.015995789 111.0
53.029126072 111.0
53.042256354 123.0
53.055386637 129.0
53.068516920 112.0
53.081647202 138.0
53.094777485 148.0
53.107907768 125.0
53.121038051 133.0
53.134168333 136.0
53.147298616 154.0
53.160428899 162.0
53.173559181 146.0
53.186689464 198.0
53.199819747 206.0
53.212950029 194.0
53.226080312 209.0
53.239210595 209.0
53.252340877 167.0
53.265471160 164.0
53.278601443 181.0
53.291731725 164.0
53.304862008 150.0
53.317992291 163.0
53.331122573 140.0
53.344252856 124.0
53.357383139 135.0
53.370513421 117.0
53.383643704 103.0
53.396773987 87.0
53.409904269 80.0
53.423034552 75.0
53.436164835 54.0
53.449295117 62.0
53.462425400 45.0
53.475555683 47.0
53.488685965 52.0
53.501816248 41.0
53.514946531 41.0
53.528076813 60.0
53.541207096 54.0
53.554337379 35.0
53.567467662 41.0
53.580597944 39.0
53.593728227 43.0
53.606858510 31.0
53.619988792 28.0
53.633119075 34.0
53.646249358 35.0
53.659379640 39.0
53.672509923 31.0
53.685640206 44.0
53.698770488 40.0
53.711900771 25.0
53.725031054 32.0
53.738161336 37.0
53.751291619 32.0
53.764421902 34.0
53.777552184 34.0
53.790682467 40.0
53.803812750 28.0
53.816943032 35.0
53.830073315 31.0
53.843203598 27.0
53.856333880 31.0
53.869464163 36.0
53.882594446 33.0
53.895724728 33.0
53.908855011 30.0
53.921985294 36.0
53.935115576 28.0
53.948245859 34.0
53.961376142 30.0
53.974506424 24.0
53.987636707 46.0
54.000766990 32.0
54.013897273 25.0
54.027027555 35.0
54.040157838 25.0
54.053288121 32.0
54.066418403 34.0
54.079548686 32.0
54.092678969 36.0
54.105809251 27.0
54.118939534 38.0
54.132069817 35.0
54.145200099 34.0
54.158330382 29.0
54.171460665 40.0
54.184590947 38.0
54.197721230 27.0
54.210851513 27.0
54.223981795 22.0
54.237112078 38.0
54.250242361 28.0
54.263372643 32.0
54.276502926 30.0
54.289633209 27.0
54.302763491 39.0
54.315893774 22.0
54.329024057 31.0
54.342154339 31.0
54.355284622 24.0
54.368414905 24.0
54.381545187 23.0
54.394675470 36.0
54.407805753 31.0
54.420936035 31.0
54.434066318 26.0
54.447196601 33.0
54.460326884 30.0
54.473457166 35.0
54.486587449 29.0
54.499717732 24.0
54.512848014 43.0
54.525978297 32.0
54.539108580 36.0
54.552238862 33.0
54.565369145 26.0
54.578499428 22.0
54.591629710 37.0
54.604759993 21.0
54.617890276 34.0
54.631020558 39.0
54.644150841 28.0
54.657281124 25.0
54.670411406 36.0
54.683541689 26.0
54.696671972 18.0
54.709802254 31.0
54.722932537 24.0
54.736062820 34.0
54.749193102 30.0
54.762323385 29.0
54.775453668 29.0
54.788583950 33.0
54.801714233 33.0
54.814844516 28.0
54.827974798 34.0
54.841105081 30.0
54.854235364 21.0
54.867365647 36.0
54.880495929 28.0
54.893626212 31.0
54.906756495 34.0
54.919886777 25.0
54.933017060 21.0
54.946147343 28.0
54.959277625 32.0
54.972407908 32.0
54.985538191 31.0
54.998668473 24.0
55.011798756 22.0
55.024929039 20.0
55.038059321 28.0
55.051189604 27.0
55.064319887 20.0
55.077450169 36.0
55.090580452 22.0
55.103710735 37.0
55.116841017 34.0
55.129971300 36.0
55.143101583 24.0
55.156231865 22.0
55.169362148 37.0
55.182492431 32.0
55.195622713 33.0
55.208752996 26.0
55.221883279 23.0
55.235013561 28.0
55.248143844 24.0
55.261274127 31.0
55.274404409 33.0
55.287534692 38.0
55.300664975 23.0
55.313795258 37.0
55.326925540 20.0
55.340055823 32.0
55.353186106 24.0
55.366316388 31.0
55.379446671 25.0
55.392576954 24.0
55.405707236 31.0
55.418837519 20.0
55.431967802 32.0
55.445098084 35.0
55.458228367 32.0
55.471358650 32.0
55.484488932 33.0
55.497619215 31.0
55.510749498 33.0
55.523879780 29.0
55.537010063 27.0
55.550140346 21.0
55.563270628 29.0
55.576400911 30.0
55.589531194 36.0
55.602661476 26.0
55.615791759 39.0
55.628922042 25.0
55.642052324 30.0
55.655182607 29.0
55.668312890 19.0
55.681443172 29.0
55.694573455 32.0
55.707703738 28.0
55.720834020 32.0
55.733964303 30.0
55.747094586 34.0
55.760224869 29.0
55.773355151 18.0
55.786485434 25.0
55.799615717 39.0
55.812745999 28.0
55.825876282 32.0
55.839006565 30.0
55.852136847 39.0
55.865267130 30.0
55.878397413 20.0
55.891527695 41.0
55.904657978 27.0
55.917788261 27.0
55.930918543 28.0
55.944048826 40.0
55.957179109 31.0
55.970309391 39.0
55.983439674 18.0
55.996569957 37.0
56.009700239 33.0
56.022830522 27.0
56.035960805 39.0
56.049091087 21.0
56.062221370 27.0
56.075351653 21.0
56.088481935 22.0
56.101612218 39.0
56.114742501 22.0
56.127872783 30.0
56.141003066 22.0
56.154133349 17.0
56.167263631 40.0
56.180393914 29.0
56.193524197 29.0
56.206654480 37.0
56.219784762 25.0
56.232915045 21.0
56.246045328 22.0
56.259175610 28.0
56.272305893 25.0
56.285436176 24.0
56.298566458 41.0
56.311696741 32.0
56.324827024 30.0
56.337957306 20.0
56.351087589 20.0
56.364217872 26.0
56.377348154 31.0
56.390478437 42.0
56.403608720 31.0
56.416739002 38.0
56.429869285 33.0
56.442999568 30.0
56.456129850 34.0
56.469260133 16.0
56.482390416 27.0
56.495520698 24.0
56.508650981 18.0
56.521781264 26.0
56.534911546 25.0
56.548041829 28.0
56.561172112 30.0
56.574302394 40.0
56.587432677 32.0
56.600562960 25.0
56.613693242 28.0
56.626823525 29.0
56.639953808 39.0
56.653084091 32.0
56.666214373 32.0
56.679344656 28.0
56.692474939 28.0
56.705605221 32.0
56.718735504 26.0
56.731865787 31.0
56.744996069 23.0
56.758126352 23.0
56.771256635 32.0
56.784386917 33.0
56.797517200 21.0
56.810647483 30.0
56.823777765 23.0
56.836908048 33.0
56.850038331 25.0
56.863168613 28.0
56.876298896 29.0
56.889429179 21.0
56.902559461 29.0
56.915689744 26.0
56.928820027 30.0
56.941950309 29.0
56.955080592 39.0
56.968210875 31.0
56.981341157 27.0
56.994471440 24.0
57.007601723 22.0
57.020732005 27.0
57.033862288 28.0
57.046992571 33.0
57.060122854 41.0
57.073253136 32.0
57.086383419 33.0
57.099513702 29.0
57.112643984 23.0
57.125774267 19.0
57.138904550 27.0
57.152034832 31.0
57.165165115 43.0
57.178295398 35.0
57.191425680 18.0
57.204555963 33.0
57.217686246 31.0
57.230816528 32.0
57.243946811 38.0
57.257077094 35.0
57.270207376 31.0
57.283337659 38.0
57.296467942 30.0
57.309598224 38.0
57.322728507 38.0
57.335858790 21.0
57.348989072 31.0
57.362119355 41.0
57.375249638 25.0
57.388379920 20.0
57.401510203 25.0
57.414640486 31.0
57.427770768 18.0
57.440901051 26.0
57.454031334 24.0
57.467161616 34.0
57.480291899 36.0
57.493422182 33.0
57.506552465 24.0
57.519682747 34.0
57.532813030 26.0
57.545943313 30.0
57.559073595 21.0
57.572203878 36.0
57.585334161 40.0
57.598464443 46.0
57.611594726 32.0
57.624725009 24.0
57.637855291 27.0
57.650985574 34.0
57.664115857 25.0
57.677246139 41.0
57.690376422 24.0
57.703506705 35.0
57.716636987 27.0
57.729767270 23.0
57.742897553 31.0
57.756027835 28.0
57.769158118 35.0
57.782288401 23.0
57.795418683 31.0
57.808548966 36.0
57.821679249 29.0
57.834809531 46.0
57.847939814 37.0
57.861070097 33.0
57.874200379 35.0
57.887330662 47.0
57.900460945 44.0
57.913591227 38.0
57.926721510 32.0
57.939851793 24.0
57.952982076 30.0
57.966112358 33.0
57.979242641 37.0
57.992372924 29.0
58.005503206 39.0
58.018633489 35.0
58.031763772 41.0
58.044894054 34.0
58.058024337 35.0
58.071154620 45.0
58.084284902 32.0
58.097415185 39.0
58.110545468 31.0
58.123675750 28.0
58.136806033 32.0
58.149936316 25.0
58.163066598 36.0
58.176196881 34.0
58.189327164 26.0
58.202457446 26.0
58.215587729 36.0
58.228718012 31.0
58.241848294 38.0
58.254978577 41.0
58.268108860 39.0
58.281239142 26.0
58.294369425 23.0
58.307499708 32.0
58.320629990 36.0
58.333760273 35.0
58.346890556 29.0
58.360020838 30.0
58.373151121 37.0
58.386281404 35.0
58.399411687 31.0
58.412541969 25.0
58.425672252 43.0
58.438802535 37.0
58.451932817 25.0
58.465063100 31.0
58.478193383 24.0
58.491323665 32.0
58.504453948 25.0
58.517584231 18.0
58.530714513 36.0
58.543844796 27.0
58.556975079 30.0
58.570105361 23.0
58.583235644 44.0
58.596365927 24.0
58.609496209 36.0
58.622626492 28.0
58.635756775 18.0
58.648887057 22.0
58.662017340 28.0
58.675147623 22.0
58.688277905 30.0
58.701408188 26.0
58.714538471 30.0
58.727668753 33.0
58.740799036 32.0
58.753929319 25.0
58.767059601 22.0
58.780189884 28.0
58.793320167 29.0
58.806450449 24.0
58.819580732 39.0
58.832711015 38.0
58.845841298 38.0
58.858971580 32.0
58.872101863 27.0
58.885232146 32.0
58.898362428 29.0
58.911492711 45.0
58.924622994 34.0
58.937753276 41.0
58.950883559 31.0
58.964013842 28.0
58.977144124 44.0
58.990274407 40.0
59.003404690 35.0
59.016534972 46.0
59.029665255 43.0
59.042795538 43.0
59.055925820 37.0
59.069056103 34.0
59.082186386 33.0
59.095316668 39.0
59.108446951 35.0
59.121577234 35.0
59.134707516 42.0
59.147837799 25.0
59.160968082 27.0
59.174098364 41.0
59.187228647 24.0
59.200358930 33.0
59.213489212 31.0
59.226619495 32.0
59.239749778 30.0
59.252880061 34.0
59.266010343 32.0
59.279140626 37.0
59.292270909 27.0
59.305401191 29.0
59.318531474 35.0
59.331661757 27.0
59.344792039 26.0
59.357922322 28.0
59.371052605 28.0
59.384182887 28.0
59.397313170 36.0
59.410443453 44.0
59.423573735 44.0
59.436704018 47.0
59.449834301 47.0
59.462964583 28.0
59.476094866 27.0
59.489225149 43.0
59.502355431 41.0
59.515485714 50.0
59.528615997 47.0
59.541746279 43.0
59.554876562 52.0
59.568006845 55.0
59.581137127 51.0
59.594267410 48.0
59.607397693 44.0
59.620527975 53.0
59.633658258 45.0
59.646788541 47.0
59.659918823 47.0
59.673049106 48.0
59.686179389 53.0
59.699309672 53.0
59.712439954 65.0
59.725570237 64.0
59.738700520 54.0
59.751830802 62.0
59.764961085 57.0
59.778091368 63.0
59.791221650 39.0
59.804351933 44.0
59.817482216 61.0
59.830612498 43.0
59.843742781 54.0
59.856873064 53.0
59.870003346 53.0
59.883133629 57.0
59.896263912 53.0
59.909394194 61.0
59.922524477 64.0
59.935654760 61.0
59.948785042 67.0
59.961915325 72.0
59.975045608 75.0
59.988175890 78.0
60.001306173 81.0
60.014436456 74.0
60.027566738 63.0
60.040697021 66.0
60.053827304 70.0
60.066957586 59.0
60.080087869 75.0
60.093218152 58.0
60.106348434 75.0
60.119478717 63.0
60.132609000 57.0
60.145739283 61.0
60.158869565 59.0
60.171999848 65.0
60.185130131 52.0
60.198260413 63.0
60.211390696 51.0
60.224520979 43.0
60.237651261 44.0
60.250781544 35.0
60.263911827 48.0
60.277042109 42.0
60.290172392 44.0
60.303302675 42.0
60.316432957 30.0
60.329563240 37.0
60.342693523 27.0
60.355823805 44.0
60.368954088 34.0
60.382084371 32.0
60.395214653 21.0
60.408344936 24.0
60.421475219 44.0
60.434605501 28.0
60.447735784 28.0
60.460866067 29.0
60.473996349 31.0
60.487126632 22.0
60.500256915 40.0
60.513387197 13.0
60.526517480 25.0
60.539647763 32.0
60.552778045 25.0
60.565908328 28.0
60.579038611 34.0
60.592168894 34.0
60.605299176 20.0
60.618429459 22.0
60.631559742 31.0
60.644690024 28.0
60.657820307 23.0
60.670950590 27.0
60.684080872 21.0
60.697211155 30.0
60.710341438 41.0
60.723471720 27.0
60.736602003 33.0
60.749732286 36.0
60.762862568 23.0
60.775992851 26.0
60.789123134 41.0
60.802253416 32.0
60.815383699 20.0
60.828513982 21.0
60.841644264 28.0
60.854774547 41.0
60.867904830 28.0
60.881035112 35.0
60.894165395 19.0
60.907295678 31.0
60.920425960 22.0
60.933556243 30.0
60.946686526 30.0
60.959816808 27.0
60.972947091 29.0
60.986077374 26.0
60.999207656 34.0
61.012337939 33.0
61.025468222 39.0
61.038598505 21.0
61.051728787 32.0
61.064859070 31.0
61.077989353 23.0
61.091119635 28.0
61.104249918 17.0
61.117380201 24.0
61.130510483 27.0
61.143640766 25.0
61.156771049 26.0
61.169901331 32.0
61.183031614 39.0
61.196161897 24.0
61.209292179 28.0
61.222422462 26.0
61.235552745 22.0
61.248683027 26.0
61.261813310 25.0
61.274943593 25.0
61.288073875 33.0
61.301204158 38.0
61.314334441 29.0
61.327464723 25.0
61.340595006 37.0
61.353725289 21.0
61.366855571 24.0
61.379985854 16.0
61.393116137 28.0
61.406246419 18.0
61.419376702 28.0
61.432506985 34.0
61.445637268 19.0
61.458767550 19.0
61.471897833 26.0
61.485028116 27.0
61.498158398 24.0
61.511288681 24.0
61.524418964 28.0
61.537549246 35.0
61.550679529 35.0
61.563809812 22.0
61.576940094 28.0
61.590070377 26.0
61.603200660 20.0
61.616330942 27.0
61.629461225 29.0
61.642591508 22.0
61.655721790 35.0
61.668852073 24.0
61.681982356 20.0
61.695112638 31.0
61.708242921 42.0
61.721373204 33.0
61.734503486 21.0
61.747633769 33.0
61.760764052 20.0
61.773894334 27.0
61.787024617 30.0
61.800154900 26.0
61.813285182 26.0
61.826415465 22.0
61.839545748 27.0
61.852676030 22.0
61.865806313 21.0
61.878936596 31.0
61.892066879 35.0
61.905197161 30.0
61.918327444 25.0
61.931457727 23.0
61.944588009 43.0
61.957718292 29.0
61.970848575 28.0
61.983978857 24.0
61.997109140 37.0
62.010239423 22.0
62.023369705 28.0
62.036499988 36.0
62.049630271 30.0
62.062760553 26.0
62.075890836 27.0
62.089021119 19.0
62.102151401 25.0
62.115281684 33.0
62.128411967 38.0
62.141542249 26.0
62.154672532 21.0
62.167802815 30.0
62.180933097 25.0
62.194063380 20.0
62.207193663 19.0
62.220323945 34.0
62.233454228 30.0
62.246584511 28.0
62.259714793 19.0
62.272845076 22.0
62.285975359 27.0
62.299105641 20.0
62.312235924 20.0
62.325366207 29.0
62.338496490 26.0
62.351626772 38.0
62.364757055 32.0
62.377887338 22.0
62.391017620 28.0
62.404147903 23.0
62.417278186 28.0
62.430408468 22.0
62.443538751 35.0
62.456669034 33.0
62.469799316 22.0
62.482929599 29.0
62.496059882 26.0
62.509190164 20.0
62.522320447 23.0
62.535450730 21.0
62.548581012 32.0
62.561711295 31.0
62.574841578 23.0
62.587971860 37.0
62.601102143 39.0
62.614232426 30.0
62.627362708 29.0
62.640492991 28.0
62.653623274 27.0
62.666753556 22.0
62.679883839 23.0
62.693014122 23.0
62.706144404 23.0
62.719274687 22.0
62.732404970 21.0
62.745535252 28.0
62.758665535 23.0
62.771795818 30.0
62.784926101 19.0
62.798056383 22.0
62.811186666 24.0
62.824316949 35.0
62.837447231 20.0
62.850577514 29.0
62.863707797 29.0
62.876838079 29.0
62.889968362 36.0
62.903098645 34.0
62.916228927 31.0
62.929359210 16.0
62.942489493 27.0
62.955619775 31.0
62.968750058 17.0
62.981880341 31.0
62.995010623 21.0
63.008140906 40.0
63.021271189 24.0
63.034401471 22.0
63.047531754 23.0
63.060662037 34.0
63.073792319 16.0
63.086922602 24.0
63.100052885 27.0
63.113183167 29.0
63.126313450 22.0
63.139443733 14.0
63.152574015 28.0
63.165704298 28.0
63.178834581 18.0
63.191964863 30.0
63.205095146 33.0
63.218225429 28.0
63.231355712 34.0
63.244485994 28.0
63.257616277 34.0
63.270746560 28.0
63.283876842 29.0
63.297007125 34.0
63.310137408 43.0
63.323267690 31.0
63.336397973 29.0
63.349528256 29.0
63.362658538 33.0
63.375788821 26.0
63.388919104 26.0
63.402049386 33.0
63.415179669 20.0
63.428309952 28.0
63.441440234 28.0
63.454570517 39.0
63.467700800 28.0
63.480831082 29.0
63.493961365 32.0
63.507091648 22.0
63.520221930 22.0
63.533352213 26.0
63.546482496 25.0
63.559612778 31.0
63.572743061 23.0
63.585873344 33.0
63.599003626 26.0
63.612133909 34.0
63.625264192 27.0
63.638394475 27.0
63.651524757 24.0
63.664655040 28.0
63.677785323 39.0
63.690915605 35.0
63.704045888 37.0
63.717176171 38.0
63.730306453 32.0
63.743436736 31.0
63.756567019 25.0
63.769697301 24.0
63.782827584 29.0
63.795957867 36.0
63.809088149 29.0
63.822218432 23.0
63.835348715 30.0
63.848478997 32.0
63.861609280 27.0
63.874739563 31.0
63.887869845 30.0
63.901000128 37.0
63.914130411 29.0
63.927260693 32.0
63.940390976 34.0
63.953521259 26.0
63.966651541 27.0
63.979781824 22.0
63.992912107 37.0
64.006042389 25.0
64.019172672 39.0
64.032302955 19.0
64.045433237 27.0
64.058563520 32.0
64.071693803 22.0
64.084824086 18.0
64.097954368 38.0
64.111084651 23.0
64.124214934 32.0
64.137345216 34.0
64.150475499 29.0
64.163605782 22.0
64.176736064 32.0
64.189866347 19.0
64.202996630 35.0
64.216126912 30.0
64.229257195 22.0
64.242387478 30.0
64.255517760 24.0
64.268648043 22.0
64.281778326 25.0
64.294908608 35.0
64.308038891 38.0
64.321169174 22.0
64.334299456 19.0
64.347429739 35.0
64.360560022 27.0
64.373690304 41.0
64.386820587 23.0
64.399950870 31.0
64.413081152 23.0
64.426211435 20.0
64.439341718 30.0
64.452472000 24.0
64.465602283 27.0
64.478732566 28.0
64.491862848 21.0
64.504993131 23.0
64.518123414 28.0
64.531253697 35.0
64.544383979 27.0
64.557514262 22.0
64.570644545 38.0
64.583774827 30.0
64.596905110 22.0
64.610035393 27.0
64.623165675 25.0
64.636295958 25.0
64.649426241 34.0
64.662556523 25.0
64.675686806 31.0
64.688817089 33.0
64.701947371 26.0
64.715077654 37.0
64.728207937 16.0
64.741338219 27.0
64.754468502 24.0
64.767598785 30.0
64.780729067 33.0
64.793859350 34.0
64.806989633 32.0
64.820119915 29.0
64.833250198 18.0
64.846380481 35.0
64.859510763 32.0
64.872641046 19.0
64.885771329 33.0
64.898901611 27.0
64.912031894 29.0
64.925162177 30.0
64.938292459 28.0
64.951422742 23.0
64.964553025 29.0
64.977683308 30.0
64.990813590 34.0
65.003943873 28.0
65.017074156 29.0
65.030204438 27.0
65.043334721 34.0
65.056465004 27.0
65.069595286 22.0
65.082725569 33.0
65.095855852 26.0
65.108986134 26.0
65.122116417 29.0
65.135246700 31.0
65.148376982 22.0
65.161507265 30.0
65.174637548 29.0
65.187767830 30.0
65.200898113 29.0
65.214028396 24.0
65.227158678 32.0
65.240288961 29.0
65.253419244 25.0
65.266549526 20.0
65.279679809 44.0
65.292810092 29.0
65.305940374 22.0
65.319070657 39.0
65.332200940 31.0
65.345331222 27.0
65.358461505 33.0
65.371591788 27.0
65.384722070 28.0
65.397852353 37.0
65.410982636 34.0
65.424112919 28.0
65.437243201 30.0
65.450373484 37.0
65.463503767 34.0
65.476634049 41.0
65.489764332 32.0
65.502894615 30.0
65.516024897 23.0
65.529155180 32.0
65.542285463 40.0
65.555415745 48.0
65.568546028 23.0
65.581676311 33.0
65.594806593 26.0
65.607936876 27.0
65.621067159 31.0
65.634197441 34.0
65.647327724 38.0
65.660458007 22.0
65.673588289 39.0
65.686718572 30.0
65.699848855 32.0
65.712979137 36.0
65.726109420 40.0
65.739239703 35.0
65.752369985 35.0
65.765500268 26.0
65.778630551 47.0
65.791760833 33.0
65.804891116 30.0
65.818021399 32.0
65.831151682 35.0
65.844281964 44.0
65.857412247 28.0
65.870542530 37.0
65.883672812 45.0
65.896803095 50.0
65.909933378 35.0
65.923063660 37.0
65.936193943 49.0
65.949324226 46.0
65.962454508 49.0
65.975584791 53.0
65.988715074 44.0
66.001845356 66.0
66.014975639 65.0
66.028105922 70.0
66.041236204 92.0
66.054366487 90.0
66.067496770 101.0
66.080627052 86.0
66.093757335 117.0
66.106887618 95.0
66.120017900 98.0
66.133148183 97.0
66.146278466 145.0
66.159408748 103.0
66.172539031 139.0
66.185669314 127.0
66.198799596 132.0
66.211929879 117.0
66.225060162 124.0
66.238190444 144.0
66.251320727 110.0
66.264451010 142.0
66.277581293 141.0
66.290711575 151.0
66.303841858 166.0
66.316972141 166.0
66.330102423 185.0
66.343232706 195.0
66.356362989 189.0
66.369493271 185.0
66.382623554 185.0
66.395753837 228.0
66.408884119 232.0
66.422014402 279.0
66.435144685 219.0
66.448274967 220.0
66.461405250 158.0
66.474535533 198.0
66.487665815 186.0
66.500796098 177.0
66.513926381 152.0
66.527056663 145.0
66.540186946 153.0
66.553317229 125.0
66.566447511 134.0
66.579577794 116.0
66.592708077 122.0
66.605838359 128.0
66.618968642 111.0
66.632098925 107.0
66.645229207 104.0
66.658359490 75.0
66.671489773 52.0
66.684620055 54.0
66.697750338 37.0
66.710880621 46.0
66.724010904 45.0
66.737141186 39.0
66.750271469 51.0
66.763401752 40.0
66.776532034 52.0
66.789662317 36.0
66.802792600 37.0
66.815922882 40.0
66.829053165 41.0
66.842183448 40.0
66.855313730 36.0
66.868444013 27.0
66.881574296 24.0
66.894704578 29.0
66.907834861 26.0
66.920965144 38.0
66.934095426 35.0
66.947225709 36.0
66.960355992 31.0
66.973486274 32.0
66.986616557 30.0
66.999746840 33.0
67.012877122 31.0
67.026007405 25.0
67.039137688 28.0
67.052267970 30.0
67.065398253 31.0
67.078528536 31.0
67.091658818 32.0
67.104789101 24.0
67.117919384 41.0
67.131049666 30.0
67.144179949 26.0
67.157310232 30.0
67.170440515 27.0
67.183570797 29.0
67.196701080 33.0
67.209831363 36.0
67.222961645 27.0
67.236091928 28.0
67.249222211 24.0
67.262352493 29.0
67.275482776 24.0
67.288613059 36.0
67.301743341 21.0
67.314873624 41.0
67.328003907 24.0
67.341134189 31.0
67.354264472 32.0
67.367394755 30.0
67.380525037 27.0
67.393655320 27.0
67.406785603 44.0
67.419915885 22.0
67.433046168 30.0
67.446176451 17.0
67.459306733 31.0
67.472437016 32.0
67.485567299 22.0
67.498697581 20.0
67.511827864 34.0
67.524958147 26.0
67.538088429 26.0
67.551218712 17.0
67.564348995 38.0
67.577479277 42.0
67.590609560 33.0
67.603739843 30.0
67.616870126 18.0
67.630000408 36.0
67.643130691 22.0
67.656260974 37.0
67.669391256 23.0
67.682521539 23.0
67.695651822 30.0
67.708782104 29.0
67.721912387 33.0
67.735042670 39.0
67.748172952 34.0
67.761303235 25.0
67.774433518 32.0
67.787563800 27.0
67.800694083 33.0
67.813824366 31.0
67.826954648 34.0
67.840084931 32.0
67.853215214 13.0
67.866345496 37.0
67.879475779 25.0
67.892606062 28.0
67.905736344 19.0
67.918866627 21.0
67.931996910 21.0
67.945127192 28.0
67.958257475 28.0
67.971387758 30.0
67.984518040 25.0
67.997648323 24.0
68.010778606 22.0
68.023908889 22.0
68.037039171 26.0
68.050169454 27.0
68.063299737 38.0
68.076430019 25.0
68.089560302 19.0
68.102690585 37.0
68.115820867 28.0
68.128951150 33.0
68.142081433 28.0
68.155211715 35.0
68.168341998 27.0
68.181472281 28.0
68.194602563 23.0
68.207732846 31.0
68.220863129 20.0
68.233993411 19.0
68.247123694 25.0
68.260253977 24.0
68.273384259 27.0
68.286514542 35.0
68.299644825 30.0
68.312775107 27.0
68.325905390 35.0
68.339035673 38.0
68.352165955 41.0
68.365296238 29.0
68.378426521 20.0
68.391556803 26.0
68.404687086 36.0
68.417817369 32.0
68.430947651 26.0
68.444077934 26.0
68.457208217 24.0
68.470338500 25.0
68.483468782 28.0
68.496599065 33.0
68.509729348 21.0
68.522859630 27.0
68.535989913 36.0
68.549120196 37.0
68.562250478 25.0
68.575380761 22.0
68.588511044 32.0
68.601641326 26.0
68.614771609 31.0
68.627901892 22.0
68.641032174 21.0
68.654162457 28.0
68.667292740 21.0
68.680423022 22.0
68.693553305 27.0
68.706683588 18.0
68.719813870 29.0
68.732944153 17.0
68.746074436 37.0
68.759204718 22.0
68.772335001 21.0
68.785465284 24.0
68.798595566 33.0
68.811725849 26.0
68.824856132 25.0
68.837986414 21.0
68.851116697 31.0
68.864246980 36.0
68.877377262 34.0
68.890507545 36.0
68.903637828 30.0
68.916768111 25.0
68.929898393 29.0
68.943028676 33.0
68.956158959 32.0
68.969289241 32.0
68.982419524 34.0
68.995549807 33.0
69.008680089 23.0
69.021810372 29.0
69.034940655 27.0
69.048070937 37.0
69.061201220 31.0
69.074331503 19.0
69.087461785 28.0
69.100592068 42.0
69.113722351 14.0
69.126852633 23.0
69.139982916 26.0
69.153113199 21.0
69.166243481 36.0
69.179373764 23.0
69.192504047 28.0
69.205634329 26.0
69.218764612 29.0
69.231894895 24.0
69.245025177 17.0
69.258155460 25.0
69.271285743 33.0
69.284416025 23.0
69.297546308 29.0
69.310676591 28.0
69.323806873 20.0
69.336937156 28.0
69.350067439 25.0
69.363197722 30.0
69.376328004 19.0
69.389458287 23.0
69.402588570 34.0
69.415718852 29.0
69.428849135 30.0
69.441979418 26.0
69.455109700 30.0
69.468239983 32.0
69.481370266 16.0
69.494500548 23.0
69.507630831 29.0
69.520761114 27.0
69.533891396 21.0
69.547021679 31.0
69.560151962 31.0
69.573282244 23.0
69.586412527 31.0
69.599542810 30.0
69.612673092 27.0
69.625803375 31.0
69.638933658 33.0
69.652063940 38.0
69.665194223 34.0
69.678324506 28.0
69.691454788 31.0
69.704585071 31.0
69.717715354 16.0
69.730845636 23.0
69.743975919 37.0
69.757106202 26.0
69.770236484 28.0
69.783366767 31.0
69.796497050 19.0
69.809627333 21.0
69.822757615 36.0
69.835887898 25.0
69.849018181 25.0
69.862148463 35.0
69.875278746 25.0
69.888409029 35.0
69.901539311 24.0
69.914669594 19.0
69.927799877 29.0
69.940930159 27.0
69.954060442 38.0
69.967190725 25.0
69.980321007 25.0
69.993451290 20.0
