20.006465140 72.0
20.019595423 60.0
20.032725705 80.0
20.045855988 73.0
20.058986271 54.0
20.072116553 92.0
20.085246836 63.0
20.098377119 84.0
20.111507401 70.0
20.124637684 63.0
20.137767967 73.0
20.150898249 70.0
20.164028532 85.0
20.177158815 69.0
20.190289097 77.0
20.203419380 76.0
20.216549663 71.0
20.229679946 71.0
20.242810228 76.0
20.255940511 75.0
20.269070794 70.0
20.282201076 69.0
20.295331359 79.0
20.308461642 63.0
20.321591924 80.0
20.334722207 75.0
20.347852490 77.0
20.360982772 79.0
20.374113055 74.0
20.387243338 71.0
20.400373620 76.0
20.413503903 79.0
20.426634186 55.0
20.439764468 62.0
20.452894751 69.0
20.466025034 56.0
20.479155316 74.0
20.492285599 67.0
20.505415882 65.0
20.518546164 67.0
20.531676447 70.0
20.544806730 67.0
20.557937012 77.0
20.571067295 67.0
20.584197578 62.0
20.597327860 80.0
20.610458143 72.0
20.623588426 75.0
20.636718708 84.0
20.649848991 75.0
20.662979274 71.0
20.676109557 77.0
20.689239839 58.0
20.702370122 65.0
20.715500405 74.0
20.728630687 65.0
20.741760970 70.0
20.754891253 72.0
20.768021535 79.0
20.781151818 70.0
20.794282101 74.0
20.807412383 59.0
20.820542666 61.0
20.833672949 66.0
20.846803231 78.0
20.859933514 74.0
20.873063797 66.0
20.886194079 81.0
20.899324362 84.0
20.912454645 86.0
20.925584927 72.0
20.938715210 80.0
20.951845493 71.0
20.964975775 61.0
20.978106058 68.0
20.991236341 65.0
21.004366623 60.0
21.017496906 74.0
21.030627189 71.0
21.043757471 70.0
21.056887754 73.0
21.070018037 60.0
21.083148319 61.0
21.096278602 76.0
21.109408885 55.0
21.122539168 75.0
21.135669450 69.0
21.148799733 71.0
21.161930016 63.0
21.175060298 69.0
21.188190581 70.0
21.201320864 80.0
21.214451146 79.0
21.227581429 49.0
21.240711712 68.0
21.253841994 71.0
21.266972277 62.0
21.280102560 75.0
21.293232842 61.0
21.306363125 70.0
21.319493408 79.0
21.332623690 64.0
21.345753973 55.0
21.358884256 70.0
21.372014538 61.0
21.385144821 61.0
21.398275104 86.0
21.411405386 68.0
21.424535669 58.0
21.437665952 76.0
21.450796234 62.0
21.463926517 54.0
21.477056800 66.0
21.490187082 56.0
21.503317365 75.0
21.516447648 74.0
21.529577930 56.0
21.542708213 80.0
21.555838496 69.0
21.568968779 71.0
21.582099061 67.0
21.595229344 63.0
21.608359627 63.0
21.621489909 61.0
21.634620192 76.0
21.647750475 87.0
21.660880757 74.0
21.674011040 65.0
21.687141323 72.0
21.700271605 80.0
21.713401888 63.0
21.726532171 54.0
21.739662453 68.0
21.752792736 68.0
21.765923019 53.0
21.779053301 64.0
21.792183584 69.0
21.805313867 69.0
21.818444149 43.0
21.831574432 65.0
21.844704715 69.0
21.857834997 63.0
21.870965280 63.0
21.884095563 67.0
21.897225845 52.0
21.910356128 70.0
21.923486411 54.0
21.936616693 57.0
21.949746976 60.0
21.962877259 76.0
21.976007541 66.0
21.989137824 69.0
22.002268107 60.0
22.015398390 46.0
22.028528672 56.0
22.041658955 81.0
22.054789238 62.0
22.067919520 54.0
22.081049803 56.0
22.094180086 61.0
22.107310368 60.0
22.120440651 80.0
22.133570934 68.0
22.146701216 60.0
22.159831499 66.0
22.172961782 59.0
22.186092064 66.0
22.199222347 64.0
22.212352630 56.0
22.225482912 78.0
22.238613195 62.0
22.251743478 58.0
22.264873760 60.0
22.278004043 59.0
22.291134326 62.0
22.304264608 61.0
22.317394891 76.0
22.330525174 57.0
22.343655456 75.0
22.356785739 62.0
22.369916022 62.0
22.383046304 73.0
22.396176587 63.0
22.409306870 79.0
22.422437153 71.0
22.435567435 60.0
22.448697718 56.0
22.461828001 69.0
22.474958283 67.0
22.488088566 58.0
22.501218849 79.0
22.514349131 68.0
22.527479414 67.0
22.540609697 65.0
22.553739979 54.0
22.566870262 60.0
22.580000545 80.0
22.593130827 72.0
22.606261110 61.0
22.619391393 56.0
22.632521675 68.0
22.645651958 67.0
22.658782241 47.0
22.671912523 70.0
22.685042806 81.0
22.698173089 67.0
22.711303371 55.0
22.724433654 54.0
22.737563937 78.0
22.750694219 73.0
22.763824502 58.0
22.776954785 57.0
22.790085067 69.0
22.803215350 72.0
22.816345633 66.0
22.829475915 42.0
22.842606198 55.0
22.855736481 69.0
22.868866764 67.0
22.881997046 67.0
22.895127329 53.0
22.908257612 80.0
22.921387894 63.0
22.934518177 65.0
22.947648460 64.0
22.960778742 54.0
22.973909025 61.0
22.987039308 88.0
23.000169590 74.0
23.013299873 58.0
23.026430156 61.0
23.039560438 65.0
23.052690721 65.0
23.065821004 67.0
23.078951286 73.0
23.092081569 74.0
23.105211852 65.0
23.118342134 64.0
23.131472417 60.0
23.144602700 56.0
23.157732982 63.0
23.170863265 70.0
23.183993548 62.0
23.197123830 58.0
23.210254113 59.0
23.223384396 75.0
23.236514678 50.0
23.249644961 71.0
23.262775244 62.0
23.275905526 52.0
23.289035809 71.0
23.302166092 67.0
23.315296375 66.0
23.328426657 75.0
23.341556940 67.0
23.354687223 60.0
23.367817505 70.0
23.380947788 78.0
23.394078071 55.0
23.407208353 61.0
23.420338636 63.0
23.433468919 62.0
23.446599201 75.0
23.459729484 60.0
23.472859767 71.0
23.485990049 72.0
23.499120332 54.0
23.512250615 67.0
23.525380897 62.0
23.538511180 61.0
23.551641463 62.0
23.564771745 62.0
23.577902028 53.0
23.591032311 70.0
23.604162593 83.0
23.617292876 58.0
23.630423159 58.0
23.643553441 55.0
23.656683724 65.0
23.669814007 48.0
23.682944289 68.0
23.696074572 69.0
23.709204855 60.0
23.722335137 73.0
23.735465420 58.0
23.748595703 55.0
23.761725986 58.0
23.774856268 43.0
23.787986551 58.0
23.801116834 67.0
23.814247116 51.0
23.827377399 63.0
23.840507682 74.0
23.853637964 52.0
23.866768247 55.0
23.879898530 55.0
23.893028812 57.0
23.906159095 61.0
23.919289378 53.0
23.932419660 50.0
23.945549943 58.0
23.958680226 67.0
23.971810508 51.0
23.984940791 67.0
23.998071074 57.0
24.011201356 65.0
24.024331639 63.0
24.037461922 62.0
24.050592204 47.0
24.063722487 51.0
24.076852770 62.0
24.089983052 64.0
24.103113335 59.0
24.116243618 59.0
24.129373900 56.0
24.142504183 64.0
24.155634466 72.0
24.168764748 61.0
24.181895031 46.0
24.195025314 68.0
24.208155597 59.0
24.221285879 46.0
24.234416162 53.0
24.247546445 51.0
24.260676727 59.0
24.273807010 57.0
24.286937293 63.0
24.300067575 54.0
24.313197858 53.0
24.326328141 53.0
24.339458423 58.0
24.352588706 57.0
24.365718989 55.0
24.378849271 52.0
24.391979554 69.0
24.405109837 66.0
24.418240119 58.0
24.431370402 70.0
24.444500685 60.0
24.457630967 45.0
24.470761250 55.0
24.483891533 58.0
24.497021815 58.0
24.510152098 67.0
24.523282381 63.0
24.536412663 60.0
24.549542946 49.0
24.562673229 59.0
24.575803511 72.0
24.588933794 64.0
24.602064077 67.0
24.615194360 44.0
24.628324642 57.0
24.641454925 53.0
24.654585208 54.0
24.667715490 64.0
24.680845773 43.0
24.693976056 52.0
24.707106338 64.0
24.720236621 67.0
24.733366904 49.0
24.746497186 53.0
24.759627469 58.0
24.772757752 86.0
24.785888034 61.0
24.799018317 68.0
24.812148600 61.0
24.825278882 48.0
24.838409165 45.0
24.851539448 52.0
24.864669730 68.0
24.877800013 45.0
24.890930296 53.0
24.904060578 49.0
24.917190861 51.0
24.930321144 59.0
24.943451426 57.0
24.956581709 65.0
24.969711992 55.0
24.982842274 70.0
24.995972557 65.0
25.009102840 50.0
25.022233122 47.0
25.035363405 54.0
25.048493688 73.0
25.061623971 59.0
25.074754253 71.0
25.087884536 65.0
25.101014819 50.0
25.114145101 61.0
25.127275384 72.0
25.140405667 56.0
25.153535949 57.0
25.166666232 64.0
25.179796515 47.0
25.192926797 64.0
25.206057080 60.0
25.219187363 53.0
25.232317645 59.0
25.245447928 67.0
25.258578211 56.0
25.271708493 67.0
25.284838776 54.0
25.297969059 61.0
25.311099341 61.0
25.324229624 57.0
25.337359907 69.0
25.350490189 73.0
25.363620472 69.0
25.376750755 63.0
25.389881037 83.0
25.403011320 77.0
25.416141603 65.0
25.429271885 59.0
25.442402168 51.0
25.455532451 70.0
25.468662733 67.0
25.481793016 88.0
25.494923299 60.0
25.508053582 65.0
25.521183864 87.0
25.534314147 77.0
25.547444430 94.0
25.560574712 94.0
25.573704995 93.0
25.586835278 116.0
25.599965560 99.0
25.613095843 125.0
25.626226126 136.0
25.639356408 155.0
25.652486691 129.0
25.665616974 126.0
25.678747256 156.0
25.691877539 143.0
25.705007822 149.0
25.718138104 143.0
25.731268387 167.0
25.744398670 161.0
25.757528952 180.0
25.770659235 167.0
25.783789518 178.0
25.796919800 182.0
25.810050083 194.0
25.823180366 192.0
25.836310648 181.0
25.849440931 239.0
25.862571214 227.0
25.875701496 231.0
25.888831779 220.0
25.901962062 181.0
25.915092344 141.0
25.928222627 173.0
25.941352910 143.0
25.954483193 120.0
25.967613475 92.0
25.980743758 83.0
25.993874041 82.0
26.007004323 71.0
26.020134606 77.0
26.033264889 65.0
26.046395171 63.0
26.059525454 54.0
26.072655737 52.0
26.085786019 55.0
26.098916302 70.0
26.112046585 53.0
26.125176867 60.0
26.138307150 70.0
26.151437433 66.0
26.164567715 57.0
26.177697998 66.0
26.190828281 60.0
26.203958563 70.0
26.217088846 59.0
26.230219129 63.0
26.243349411 57.0
26.256479694 59.0
26.269609977 64.0
26.282740259 56.0
26.295870542 62.0
26.309000825 64.0
26.322131107 49.0
26.335261390 58.0
26.348391673 50.0
26.361521955 61.0
26.374652238 55.0
26.387782521 59.0
26.400912804 49.0
26.414043086 50.0
26.427173369 39.0
26.440303652 50.0
26.453433934 71.0
26.466564217 67.0
26.479694500 63.0
26.492824782 56.0
26.505955065 54.0
26.519085348 50.0
26.532215630 47.0
26.545345913 41.0
26.558476196 52.0
26.571606478 59.0
26.584736761 53.0
26.597867044 66.0
26.610997326 44.0
26.624127609 45.0
26.637257892 40.0
26.650388174 62.0
26.663518457 55.0
26.676648740 52.0
26.689779022 63.0
26.702909305 45.0
26.716039588 56.0
26.729169870 45.0
26.742300153 58.0
26.755430436 64.0
26.768560718 68.0
26.781691001 56.0
26.794821284 53.0
26.807951567 45.0
26.821081849 49.0
26.834212132 54.0
26.847342415 64.0
26.860472697 33.0
26.873602980 39.0
26.886733263 52.0
26.899863545 54.0
26.912993828 67.0
26.926124111 56.0
26.939254393 55.0
26.952384676 56.0
26.965514959 58.0
26.978645241 54.0
26.991775524 61.0
27.004905807 57.0
27.018036089 54.0
27.031166372 58.0
27.044296655 53.0
27.057426937 56.0
27.070557220 52.0
27.083687503 58.0
27.096817785 61.0
27.109948068 49.0
27.123078351 51.0
27.136208633 60.0
27.149338916 40.0
27.162469199 63.0
27.175599481 49.0
27.188729764 58.0
27.201860047 45.0
27.214990329 56.0
27.228120612 53.0
27.241250895 66.0
27.254381178 55.0
27.267511460 45.0
27.280641743 48.0
27.293772026 49.0
27.306902308 49.0
27.320032591 52.0
27.333162874 60.0
27.346293156 59.0
27.359423439 55.0
27.372553722 56.0
27.385684004 47.0
27.398814287 49.0
27.411944570 49.0
27.425074852 54.0
27.438205135 51.0
27.451335418 49.0
27.464465700 55.0
27.477595983 44.0
27.490726266 51.0
27.503856548 56.0
27.516986831 48.0
27.530117114 56.0
27.543247396 50.0
27.556377679 54.0
27.569507962 56.0
27.582638244 55.0
27.595768527 51.0
27.608898810 47.0
27.622029092 63.0
27.635159375 50.0
27.648289658 61.0
27.661419940 56.0
27.674550223 64.0
27.687680506 52.0
27.700810789 51.0
27.713941071 61.0
27.727071354 64.0
27.740201637 64.0
27.753331919 65.0
27.766462202 56.0
27.779592485 55.0
27.792722767 59.0
27.805853050 47.0
27.818983333 54.0
27.832113615 57.0
27.845243898 62.0
27.858374181 60.0
27.871504463 56.0
27.884634746 59.0
27.897765029 51.0
27.910895311 39.0
27.924025594 52.0
27.937155877 61.0
27.950286159 56.0
27.963416442 58.0
27.976546725 69.0
27.989677007 55.0
28.002807290 47.0
28.015937573 68.0
28.029067855 49.0
28.042198138 51.0
28.055328421 58.0
28.068458703 72.0
28.081588986 66.0
28.094719269 75.0
28.107849551 66.0
28.120979834 73.0
28.134110117 54.0
28.147240400 50.0
28.160370682 45.0
28.173500965 41.0
28.186631248 51.0
28.199761530 41.0
28.212891813 47.0
28.226022096 51.0
28.239152378 53.0
28.252282661 43.0
28.265412944 46.0
28.278543226 60.0
28.291673509 60.0
28.304803792 56.0
28.317934074 52.0
28.331064357 46.0
28.344194640 58.0
28.357324922 45.0
28.370455205 37.0
28.383585488 59.0
28.396715770 59.0
28.409846053 49.0
28.422976336 52.0
28.436106618 61.0
28.449236901 45.0
28.462367184 48.0
28.475497466 59.0
28.488627749 46.0
28.501758032 49.0
28.514888314 63.0
28.528018597 57.0
28.541148880 47.0
28.554279162 53.0
28.567409445 51.0
28.580539728 51.0
28.593670011 38.0
28.606800293 45.0
28.619930576 53.0
28.633060859 45.0
28.646191141 46.0
28.659321424 49.0
28.672451707 52.0
28.685581989 43.0
28.698712272 38.0
28.711842555 61.0
28.724972837 65.0
28.738103120 52.0
28.751233403 45.0
28.764363685 49.0
28.777493968 67.0
28.790624251 55.0
28.803754533 39.0
28.816884816 53.0
28.830015099 51.0
28.843145381 52.0
28.856275664 60.0
28.869405947 44.0
28.882536229 41.0
28.895666512 46.0
28.908796795 46.0
28.921927077 46.0
28.935057360 41.0
28.948187643 48.0
28.961317925 58.0
28.974448208 47.0
28.987578491 55.0
29.000708774 52.0
29.013839056 51.0
29.026969339 63.0
29.040099622 58.0
29.053229904 57.0
29.066360187 36.0
29.079490470 51.0
29.092620752 68.0
29.105751035 46.0
29.118881318 52.0
29.132011600 56.0
29.145141883 60.0
29.158272166 54.0
29.171402448 54.0
29.184532731 56.0
29.197663014 43.0
29.210793296 56.0
29.223923579 39.0
29.237053862 44.0
29.250184144 42.0
29.263314427 38.0
29.276444710 44.0
29.289574992 55.0
29.302705275 44.0
29.315835558 56.0
29.328965840 53.0
29.342096123 40.0
29.355226406 50.0
29.368356688 49.0
29.381486971 58.0
29.394617254 45.0
29.407747536 56.0
29.420877819 56.0
29.434008102 55.0
29.447138385 43.0
29.460268667 50.0
29.473398950 39.0
29.486529233 50.0
29.499659515 53.0
29.512789798 30.0
29.525920081 54.0
29.539050363 43.0
29.552180646 49.0
29.565310929 44.0
29.578441211 46.0
29.591571494 44.0
29.604701777 43.0
29.617832059 46.0
29.630962342 50.0
29.644092625 51.0
29.657222907 52.0
29.670353190 55.0
29.683483473 53.0
29.696613755 43.0
29.709744038 37.0
29.722874321 50.0
29.736004603 52.0
29.749134886 48.0
29.762265169 43.0
29.775395451 44.0
29.788525734 42.0
29.801656017 47.0
29.814786299 48.0
29.827916582 48.0
29.841046865 43.0
29.854177147 47.0
29.867307430 51.0
29.880437713 59.0
29.893567996 62.0
29.906698278 60.0
29.919828561 44.0
29.932958844 48.0
29.946089126 53.0
29.959219409 49.0
29.972349692 40.0
29.985479974 45.0
29.998610257 60.0
30.011740540 44.0
30.024870822 54.0
30.038001105 46.0
30.051131388 40.0
30.064261670 48.0
30.077391953 54.0
30.090522236 36.0
30.103652518 52.0
30.116782801 51.0
30.129913084 56.0
30.143043366 43.0
30.156173649 43.0
30.169303932 46.0
30.182434214 41.0
30.195564497 50.0
30.208694780 46.0
30.221825062 53.0
30.234955345 41.0
30.248085628 50.0
30.261215910 41.0
30.274346193 52.0
30.287476476 48.0
30.300606758 63.0
30.313737041 58.0
30.326867324 50.0
30.339997607 49.0
30.353127889 54.0
30.366258172 44.0
30.379388455 43.0
30.392518737 54.0
30.405649020 47.0
30.418779303 38.0
30.431909585 40.0
30.445039868 49.0
30.458170151 57.0
30.471300433 60.0
30.484430716 39.0
30.497560999 31.0
30.510691281 37.0
30.523821564 54.0
30.536951847 49.0
30.550082129 52.0
30.563212412 48.0
30.576342695 58.0
30.589472977 46.0
30.602603260 58.0
30.615733543 41.0
30.628863825 42.0
30.641994108 50.0
30.655124391 44.0
30.668254673 46.0
30.681384956 46.0
30.694515239 42.0
30.707645521 40.0
30.720775804 41.0
30.733906087 45.0
30.747036369 47.0
30.760166652 36.0
30.773296935 47.0
30.786427218 57.0
30.799557500 34.0
30.812687783 41.0
30.825818066 46.0
30.838948348 39.0
30.852078631 42.0
30.865208914 38.0
30.878339196 31.0
30.891469479 39.0
30.904599762 55.0
30.917730044 46.0
30.930860327 46.0
30.943990610 35.0
30.957120892 46.0
30.970251175 54.0
30.983381458 52.0
30.996511740 31.0
31.009642023 34.0
31.022772306 32.0
31.035902588 51.0
31.049032871 30.0
31.062163154 40.0
31.075293436 35.0
31.088423719 43.0
31.101554002 43.0
31.114684284 63.0
31.127814567 62.0
31.140944850 47.0
31.154075132 46.0
31.167205415 52.0
31.180335698 44.0
31.193465981 55.0
31.206596263 40.0
31.219726546 53.0
31.232856829 56.0
31.245987111 50.0
31.259117394 48.0
31.272247677 47.0
31.285377959 47.0
31.298508242 39.0
31.311638525 36.0
31.324768807 40.0
31.337899090 46.0
31.351029373 45.0
31.364159655 40.0
31.377289938 46.0
31.390420221 40.0
31.403550503 47.0
31.416680786 46.0
31.429811069 40.0
31.442941351 56.0
31.456071634 44.0
31.469201917 40.0
31.482332199 49.0
31.495462482 33.0
31.508592765 55.0
31.521723047 43.0
31.534853330 30.0
31.547983613 41.0
31.561113895 45.0
31.574244178 53.0
31.587374461 39.0
31.600504743 50.0
31.613635026 44.0
31.626765309 44.0
31.639895592 54.0
31.653025874 45.0
31.666156157 62.0
31.679286440 33.0
31.692416722 51.0
31.705547005 36.0
31.718677288 45.0
31.731807570 48.0
31.744937853 52.0
31.758068136 59.0
31.771198418 38.0
31.784328701 44.0
31.797458984 33.0
31.810589266 49.0
31.823719549 40.0
31.836849832 48.0
31.849980114 55.0
31.863110397 46.0
31.876240680 31.0
31.889370962 49.0
31.902501245 46.0
31.915631528 46.0
31.928761810 47.0
31.941892093 40.0
31.955022376 62.0
31.968152658 56.0
31.981282941 42.0
31.994413224 49.0
32.007543506 52.0
32.020673789 48.0
32.033804072 56.0
32.046934354 56.0
32.060064637 42.0
32.073194920 52.0
32.086325203 55.0
32.099455485 38.0
32.112585768 29.0
32.125716051 44.0
32.138846333 42.0
32.151976616 41.0
32.165106899 54.0
32.178237181 55.0
32.191367464 42.0
32.204497747 48.0
32.217628029 58.0
32.230758312 48.0
32.243888595 47.0
32.257018877 52.0
32.270149160 33.0
32.283279443 51.0
32.296409725 39.0
32.309540008 44.0
32.322670291 50.0
32.335800573 32.0
32.348930856 48.0
32.362061139 38.0
32.375191421 45.0
32.388321704 36.0
32.401451987 55.0
32.414582269 64.0
32.427712552 31.0
32.440842835 39.0
32.453973117 48.0
32.467103400 44.0
32.480233683 42.0
32.493363965 39.0
32.506494248 44.0
32.519624531 37.0
32.532754814 39.0
32.545885096 51.0
32.559015379 50.0
32.572145662 47.0
32.585275944 45.0
32.598406227 53.0
32.611536510 59.0
32.624666792 49.0
32.637797075 46.0
32.650927358 37.0
32.664057640 44.0
32.677187923 46.0
32.690318206 40.0
32.703448488 41.0
32.716578771 46.0
32.729709054 52.0
32.742839336 53.0
32.755969619 58.0
32.769099902 58.0
32.782230184 59.0
32.795360467 66.0
32.808490750 59.0
32.821621032 61.0
32.834751315 69.0
32.847881598 65.0
32.861011880 68.0
32.874142163 72.0
32.887272446 58.0
32.900402728 77.0
32.913533011 61.0
32.926663294 49.0
32.939793576 62.0
32.952923859 55.0
32.966054142 68.0
32.979184425 50.0
32.992314707 51.0
33.005444990 51.0
33.018575273 52.0
33.031705555 52.0
33.044835838 46.0
33.057966121 50.0
33.071096403 41.0
33.084226686 53.0
33.097356969 36.0
33.110487251 57.0
33.123617534 60.0
33.136747817 48.0
33.149878099 50.0
33.163008382 44.0
33.176138665 52.0
33.189268947 43.0
33.202399230 64.0
33.215529513 65.0
33.228659795 67.0
33.241790078 65.0
33.254920361 59.0
33.268050643 46.0
33.281180926 62.0
33.294311209 57.0
33.307441491 50.0
33.320571774 50.0
33.333702057 50.0
33.346832339 59.0
33.359962622 35.0
33.373092905 52.0
33.386223188 52.0
33.399353470 38.0
33.412483753 42.0
33.425614036 32.0
33.438744318 34.0
33.451874601 39.0
33.465004884 33.0
33.478135166 53.0
33.491265449 49.0
33.504395732 44.0
33.517526014 42.0
33.530656297 42.0
33.543786580 29.0
33.556916862 46.0
33.570047145 35.0
33.583177428 50.0
33.596307710 45.0
33.609437993 34.0
33.622568276 47.0
33.635698558 29.0
33.648828841 44.0
33.661959124 48.0
33.675089406 38.0
33.688219689 43.0
33.701349972 45.0
33.714480254 43.0
33.727610537 38.0
33.740740820 52.0
33.753871102 36.0
33.767001385 39.0
33.780131668 38.0
33.793261950 46.0
33.806392233 35.0
33.819522516 32.0
33.832652799 53.0
33.845783081 40.0
33.858913364 30.0
33.872043647 33.0
33.885173929 34.0
33.898304212 36.0
33.911434495 47.0
33.924564777 29.0
33.937695060 34.0
33.950825343 34.0
33.963955625 54.0
33.977085908 45.0
33.990216191 47.0
34.003346473 37.0
34.016476756 36.0
34.029607039 64.0
34.042737321 37.0
34.055867604 31.0
34.068997887 40.0
34.082128169 52.0
34.095258452 44.0
34.108388735 47.0
34.121519017 44.0
34.134649300 41.0
34.147779583 46.0
34.160909865 44.0
34.174040148 48.0
34.187170431 52.0
34.200300713 42.0
34.213430996 34.0
34.226561279 45.0
34.239691561 34.0
34.252821844 47.0
34.265952127 36.0
34.279082410 43.0
34.292212692 39.0
34.305342975 39.0
34.318473258 49.0
34.331603540 41.0
34.344733823 44.0
34.357864106 48.0
34.370994388 50.0
34.384124671 34.0
34.397254954 35.0
34.410385236 51.0
34.423515519 31.0
34.436645802 51.0
34.449776084 46.0
34.462906367 34.0
34.476036650 45.0
34.489166932 36.0
34.502297215 50.0
34.515427498 30.0
34.528557780 45.0
34.541688063 34.0
34.554818346 34.0
34.567948628 56.0
34.581078911 41.0
34.594209194 28.0
34.607339476 38.0
34.620469759 34.0
34.633600042 35.0
34.646730324 37.0
34.659860607 49.0
34.672990890 40.0
34.686121172 31.0
34.699251455 30.0
34.712381738 40.0
34.725512021 48.0
34.738642303 44.0
34.751772586 29.0
34.764902869 34.0
34.778033151 42.0
34.791163434 36.0
34.804293717 53.0
34.817423999 35.0
34.830554282 35.0
34.843684565 35.0
34.856814847 34.0
34.869945130 35.0
34.883075413 40.0
34.896205695 41.0
34.909335978 38.0
34.922466261 39.0
34.935596543 42.0
34.948726826 46.0
34.961857109 42.0
34.974987391 40.0
34.988117674 43.0
35.001247957 48.0
35.014378239 36.0
35.027508522 34.0
35.040638805 44.0
35.053769087 46.0
35.066899370 30.0
35.080029653 45.0
35.093159935 42.0
35.106290218 36.0
35.119420501 27.0
35.132550783 32.0
35.145681066 35.0
35.158811349 43.0
35.171941632 36.0
35.185071914 33.0
35.198202197 35.0
35.211332480 39.0
35.224462762 51.0
35.237593045 30.0
35.250723328 45.0
35.263853610 40.0
35.276983893 34.0
35.290114176 45.0
35.303244458 41.0
35.316374741 37.0
35.329505024 39.0
35.342635306 47.0
35.355765589 49.0
35.368895872 41.0
35.382026154 55.0
35.395156437 35.0
35.408286720 49.0
35.421417002 42.0
35.434547285 39.0
35.447677568 39.0
35.460807850 43.0
35.473938133 51.0
35.487068416 46.0
35.500198698 42.0
35.513328981 41.0
35.526459264 41.0
35.539589546 39.0
35.552719829 34.0
35.565850112 49.0
35.578980395 41.0
35.592110677 42.0
35.605240960 40.0
35.618371243 41.0
35.631501525 40.0
35.644631808 31.0
35.657762091 31.0
35.670892373 47.0
35.684022656 40.0
35.697152939 31.0
35.710283221 44.0
35.723413504 37.0
35.736543787 40.0
35.749674069 33.0
35.762804352 54.0
35.775934635 53.0
35.789064917 45.0
35.802195200 40.0
35.815325483 48.0
35.828455765 46.0
35.841586048 41.0
35.854716331 42.0
35.867846613 43.0
35.880976896 37.0
35.894107179 50.0
35.907237461 40.0
35.920367744 41.0
35.933498027 39.0
35.946628309 53.0
35.959758592 42.0
35.972888875 45.0
35.986019157 30.0
35.999149440 47.0
36.012279723 48.0
36.025410006 46.0
36.038540288 52.0
36.051670571 48.0
36.064800854 38.0
36.077931136 37.0
36.091061419 45.0
36.104191702 40.0
36.117321984 44.0
36.130452267 45.0
36.143582550 44.0
36.156712832 65.0
36.169843115 39.0
36.182973398 42.0
36.196103680 39.0
36.209233963 47.0
36.222364246 54.0
36.235494528 51.0
36.248624811 36.0
36.261755094 37.0
36.274885376 41.0
36.288015659 43.0
36.301145942 51.0
36.314276224 52.0
36.327406507 57.0
36.340536790 61.0
36.353667072 54.0
36.366797355 59.0
36.379927638 65.0
36.393057920 50.0
36.406188203 45.0
36.419318486 43.0
36.432448768 65.0
36.445579051 69.0
36.458709334 60.0
36.471839617 71.0
36.484969899 84.0
36.498100182 89.0
36.511230465 104.0
36.524360747 94.0
36.537491030 100.0
36.550621313 108.0
36.563751595 97.0
36.576881878 133.0
36.590012161 150.0
36.603142443 164.0
36.616272726 190.0
36.629403009 207.0
36.642533291 258.0
36.655663574 282.0
36.668793857 314.0
36.681924139 377.0
36.695054422 476.0
36.708184705 537.0
36.721314987 680.0
36.734445270 820.0
36.747575553 913.0
36.760705835 956.0
36.773836118 978.0
36.786966401 924.0
36.800096683 975.0
36.813226966 879.0
36.826357249 975.0
36.839487531 909.0
36.852617814 843.0
36.865748097 857.0
36.878878379 742.0
36.892008662 693.0
36.905138945 652.0
36.918269228 611.0
36.931399510 519.0
36.944529793 452.0
36.957660076 424.0
36.970790358 311.0
36.983920641 324.0
36.997050924 301.0
37.010181206 244.0
37.023311489 200.0
37.036441772 156.0
37.049572054 176.0
37.062702337 121.0
37.075832620 107.0
37.088962902 101.0
37.102093185 86.0
37.115223468 95.0
37.128353750 72.0
37.141484033 73.0
37.154614316 83.0
37.167744598 72.0
37.180874881 69.0
37.194005164 59.0
37.207135446 59.0
37.220265729 58.0
37.233396012 54.0
37.246526294 60.0
37.259656577 60.0
37.272786860 50.0
37.285917142 49.0
37.299047425 51.0
37.312177708 46.0
37.325307990 50.0
37.338438273 45.0
37.351568556 54.0
37.364698839 38.0
37.377829121 50.0
37.390959404 57.0
37.404089687 56.0
37.417219969 47.0
37.430350252 35.0
37.443480535 42.0
37.456610817 37.0
37.469741100 42.0
37.482871383 56.0
37.496001665 55.0
37.509131948 40.0
37.522262231 57.0
37.535392513 42.0
37.548522796 59.0
37.561653079 37.0
37.574783361 49.0
37.587913644 41.0
37.601043927 46.0
37.614174209 45.0
37.627304492 43.0
37.640434775 49.0
37.653565057 34.0
37.666695340 44.0
37.679825623 37.0
37.692955905 44.0
37.706086188 42.0
37.719216471 29.0
37.732346753 43.0
37.745477036 57.0
37.758607319 25.0
37.771737602 30.0
37.784867884 39.0
37.797998167 40.0
37.811128450 45.0
37.824258732 37.0
37.837389015 44.0
37.850519298 33.0
37.863649580 39.0
37.876779863 38.0
37.889910146 37.0
37.903040428 45.0
37.916170711 33.0
37.929300994 36.0
37.942431276 39.0
37.955561559 37.0
37.968691842 36.0
37.981822124 43.0
37.994952407 43.0
38.008082690 32.0
38.021212972 30.0
38.034343255 40.0
38.047473538 46.0
38.060603820 37.0
38.073734103 39.0
38.086864386 30.0
38.099994668 41.0
38.113124951 27.0
38.126255234 33.0
38.139385516 33.0
38.152515799 44.0
38.165646082 44.0
38.178776364 24.0
38.191906647 30.0
38.205036930 42.0
38.218167213 34.0
38.231297495 42.0
38.244427778 29.0
38.257558061 28.0
38.270688343 39.0
38.283818626 42.0
38.296948909 36.0
38.310079191 43.0
38.323209474 35.0
38.336339757 37.0
38.349470039 36.0
38.362600322 44.0
38.375730605 33.0
38.388860887 38.0
38.401991170 38.0
38.415121453 40.0
38.428251735 34.0
38.441382018 51.0
38.454512301 38.0
38.467642583 33.0
38.480772866 39.0
38.493903149 30.0
38.507033431 32.0
38.520163714 43.0
38.533293997 38.0
38.546424279 18.0
38.559554562 29.0
38.572684845 37.0
38.585815127 29.0
38.598945410 40.0
38.612075693 44.0
38.625205975 32.0
38.638336258 23.0
38.651466541 40.0
38.664596824 29.0
38.677727106 28.0
38.690857389 36.0
38.703987672 27.0
38.717117954 27.0
38.730248237 30.0
38.743378520 47.0
38.756508802 35.0
38.769639085 39.0
38.782769368 38.0
38.795899650 43.0
38.809029933 30.0
38.822160216 30.0
38.835290498 30.0
38.848420781 28.0
38.861551064 41.0
38.874681346 34.0
38.887811629 52.0
38.900941912 25.0
38.914072194 38.0
38.927202477 26.0
38.940332760 33.0
38.953463042 41.0
38.966593325 38.0
38.979723608 34.0
38.992853890 28.0
39.005984173 36.0
39.019114456 28.0
39.032244738 30.0
39.045375021 45.0
39.058505304 29.0
39.071635586 31.0
39.084765869 32.0
39.097896152 29.0
39.111026435 38.0
39.124156717 45.0
39.137287000 37.0
39.150417283 29.0
39.163547565 32.0
39.176677848 47.0
39.189808131 37.0
39.202938413 51.0
39.216068696 32.0
39.229198979 28.0
39.242329261 43.0
39.255459544 32.0
39.268589827 38.0
39.281720109 35.0
39.294850392 25.0
39.307980675 43.0
39.321110957 48.0
39.334241240 34.0
39.347371523 40.0
39.360501805 34.0
39.373632088 32.0
39.386762371 37.0
39.399892653 34.0
39.413022936 36.0
39.426153219 27.0
39.439283501 23.0
39.452413784 31.0
39.465544067 30.0
39.478674349 26.0
39.491804632 36.0
39.504934915 46.0
39.518065197 47.0
39.531195480 39.0
39.544325763 32.0
39.557456046 37.0
39.570586328 37.0
39.583716611 24.0
39.596846894 21.0
39.609977176 21.0
39.623107459 32.0
39.636237742 31.0
39.649368024 36.0
39.662498307 43.0
39.675628590 34.0
39.688758872 38.0
39.701889155 39.0
39.715019438 36.0
39.728149720 28.0
39.741280003 29.0
39.754410286 42.0
39.767540568 32.0
39.780670851 57.0
39.793801134 41.0
39.806931416 40.0
39.820061699 51.0
39.833191982 49.0
39.846322264 43.0
39.859452547 26.0
39.872582830 36.0
39.885713112 24.0
39.898843395 43.0
39.911973678 35.0
39.925103960 38.0
39.938234243 39.0
39.951364526 42.0
39.964494809 38.0
39.977625091 44.0
39.990755374 26.0
40.003885657 29.0
40.017015939 40.0
40.030146222 37.0
40.043276505 38.0
40.056406787 40.0
40.069537070 46.0
40.082667353 45.0
40.095797635 28.0
40.108927918 34.0
40.122058201 35.0
40.135188483 40.0
40.148318766 38.0
40.161449049 30.0
40.174579331 40.0
40.187709614 40.0
40.200839897 25.0
40.213970179 38.0
40.227100462 47.0
40.240230745 37.0
40.253361027 31.0
40.266491310 33.0
40.279621593 28.0
40.292751875 31.0
40.305882158 36.0
40.319012441 26.0
40.332142723 42.0
40.345273006 26.0
40.358403289 41.0
40.371533571 37.0
40.384663854 37.0
40.397794137 34.0
40.410924420 34.0
40.424054702 19.0
40.437184985 31.0
40.450315268 33.0
40.463445550 32.0
40.476575833 30.0
40.489706116 34.0
40.502836398 28.0
40.515966681 30.0
40.529096964 31.0
40.542227246 31.0
40.555357529 34.0
40.568487812 36.0
40.581618094 42.0
40.594748377 33.0
40.607878660 42.0
40.621008942 36.0
40.634139225 34.0
40.647269508 33.0
40.660399790 31.0
40.673530073 32.0
40.686660356 29.0
40.699790638 36.0
40.712920921 30.0
40.726051204 25.0
40.739181486 37.0
40.752311769 48.0
40.765442052 43.0
40.778572334 41.0
40.791702617 38.0
40.804832900 35.0
40.817963182 37.0
40.831093465 22.0
40.844223748 38.0
40.857354031 36.0
40.870484313 33.0
40.883614596 23.0
40.896744879 29.0
40.909875161 29.0
40.923005444 20.0
40.936135727 32.0
40.949266009 32.0
40.962396292 34.0
40.975526575 42.0
40.988656857 26.0
41.001787140 36.0
41.014917423 31.0
41.028047705 41.0
41.041177988 36.0
41.054308271 36.0
41.067438553 38.0
41.080568836 25.0
41.093699119 36.0
41.106829401 40.0
41.119959684 25.0
41.133089967 28.0
41.146220249 38.0
41.159350532 36.0
41.172480815 36.0
41.185611097 39.0
41.198741380 42.0
41.211871663 37.0
41.225001945 39.0
41.238132228 37.0
41.251262511 48.0
41.264392793 59.0
41.277523076 50.0
41.290653359 33.0
41.303783642 35.0
41.316913924 32.0
41.330044207 41.0
41.343174490 40.0
41.356304772 22.0
41.369435055 26.0
41.382565338 26.0
41.395695620 26.0
41.408825903 60.0
41.421956186 23.0
41.435086468 28.0
41.448216751 36.0
41.461347034 26.0
41.474477316 30.0
41.487607599 37.0
41.500737882 43.0
41.513868164 35.0
41.526998447 37.0
41.540128730 28.0
41.553259012 37.0
41.566389295 33.0
41.579519578 35.0
41.592649860 40.0
41.605780143 46.0
41.618910426 28.0
41.632040708 25.0
41.645170991 45.0
41.658301274 28.0
41.671431556 34.0
41.684561839 39.0
41.697692122 38.0
41.710822404 37.0
41.723952687 26.0
41.737082970 27.0
41.750213253 43.0
41.763343535 30.0
41.776473818 31.0
41.789604101 34.0
41.802734383 28.0
41.815864666 35.0
41.828994949 24.0
41.842125231 45.0
41.855255514 22.0
41.868385797 40.0
41.881516079 40.0
41.894646362 25.0
41.907776645 39.0
41.920906927 37.0
41.934037210 30.0
41.947167493 38.0
41.960297775 35.0
41.973428058 27.0
41.986558341 32.0
41.999688623 21.0
42.012818906 38.0
42.025949189 32.0
42.039079471 26.0
42.052209754 40.0
42.065340037 31.0
42.078470319 22.0
42.091600602 36.0
42.104730885 35.0
42.117861167 27.0
42.130991450 44.0
42.144121733 39.0
42.157252016 32.0
42.170382298 34.0
42.183512581 44.0
42.196642864 39.0
42.209773146 36.0
42.222903429 35.0
42.236033712 39.0
42.249163994 40.0
42.262294277 36.0
42.275424560 42.0
42.288554842 30.0
42.301685125 45.0
42.314815408 37.0
42.327945690 35.0
42.341075973 20.0
42.354206256 29.0
42.367336538 34.0
42.380466821 31.0
42.393597104 26.0
42.406727386 34.0
42.419857669 22.0
42.432987952 27.0
42.446118234 20.0
42.459248517 25.0
42.472378800 33.0
42.485509082 22.0
42.498639365 29.0
42.511769648 46.0
42.524899930 28.0
42.538030213 40.0
42.551160496 30.0
42.564290778 29.0
42.577421061 32.0
42.590551344 21.0
42.603681627 27.0
42.616811909 23.0
42.629942192 28.0
42.643072475 22.0
42.656202757 30.0
42.669333040 35.0
42.682463323 26.0
42.695593605 27.0
42.708723888 32.0
42.721854171 39.0
42.734984453 34.0
42.748114736 41.0
42.761245019 32.0
42.774375301 28.0
42.787505584 32.0
42.800635867 33.0
42.813766149 34.0
42.826896432 27.0
42.840026715 22.0
42.853156997 32.0
42.866287280 38.0
42.879417563 31.0
42.892547845 30.0
42.905678128 23.0
42.918808411 22.0
42.931938693 44.0
42.945068976 42.0
42.958199259 31.0
42.971329541 31.0
42.984459824 31.0
42.997590107 36.0
43.010720389 30.0
43.023850672 30.0
43.036980955 30.0
43.050111238 22.0
43.063241520 29.0
43.076371803 25.0
43.089502086 32.0
43.102632368 30.0
43.115762651 23.0
43.128892934 31.0
43.142023216 24.0
43.155153499 28.0
43.168283782 30.0
43.181414064 34.0
43.194544347 38.0
43.207674630 37.0
43.220804912 30.0
43.233935195 19.0
43.247065478 30.0
43.260195760 26.0
43.273326043 35.0
43.286456326 33.0
43.299586608 39.0
43.312716891 32.0
43.325847174 24.0
43.338977456 31.0
43.352107739 28.0
43.365238022 32.0
43.378368304 44.0
43.391498587 32.0
43.404628870 30.0
43.417759152 28.0
43.430889435 26.0
43.444019718 27.0
43.457150000 36.0
43.470280283 31.0
43.483410566 38.0
43.496540849 39.0
43.509671131 27.0
43.522801414 38.0
43.535931697 27.0
43.549061979 44.0
43.562192262 32.0
43.575322545 39.0
43.588452827 40.0
43.601583110 50.0
43.614713393 25.0
43.627843675 44.0
43.640973958 35.0
43.654104241 20.0
43.667234523 24.0
43.680364806 30.0
43.693495089 21.0
43.706625371 36.0
43.719755654 38.0
43.732885937 36.0
43.746016219 29.0
43.759146502 33.0
43.772276785 25.0
43.785407067 22.0
43.798537350 39.0
43.811667633 31.0
43.824797915 29.0
43.837928198 27.0
43.851058481 33.0
43.864188763 27.0
43.877319046 25.0
43.890449329 39.0
43.903579611 24.0
43.916709894 24.0
43.929840177 27.0
43.942970460 27.0
43.956100742 37.0
43.969231025 34.0
43.982361308 34.0
43.995491590 39.0
44.008621873 30.0
44.021752156 21.0
44.034882438 29.0
44.048012721 25.0
44.061143004 34.0
44.074273286 29.0
44.087403569 31.0
44.100533852 29.0
44.113664134 27.0
44.126794417 20.0
44.139924700 27.0
44.153054982 22.0
44.166185265 39.0
44.179315548 30.0
44.192445830 37.0
44.205576113 27.0
44.218706396 32.0
44.231836678 33.0
44.244966961 33.0
44.258097244 28.0
44.271227526 45.0
44.284357809 39.0
44.297488092 23.0
44.310618374 27.0
44.323748657 37.0
44.336878940 23.0
44.350009223 33.0
44.363139505 32.0
44.376269788 32.0
44.389400071 22.0
44.402530353 30.0
44.415660636 22.0
44.428790919 33.0
44.441921201 29.0
44.455051484 33.0
44.468181767 37.0
44.481312049 23.0
44.494442332 32.0
44.507572615 49.0
44.520702897 22.0
44.533833180 28.0
44.546963463 23.0
44.560093745 33.0
44.573224028 36.0
44.586354311 30.0
44.599484593 37.0
44.612614876 25.0
44.625745159 34.0
44.638875441 32.0
44.652005724 39.0
44.665136007 29.0
44.678266289 34.0
44.691396572 25.0
44.704526855 27.0
44.717657137 25.0
44.730787420 38.0
44.743917703 19.0
44.757047985 36.0
44.770178268 25.0
44.783308551 26.0
44.796438834 29.0
44.809569116 23.0
44.822699399 23.0
44.835829682 28.0
44.848959964 26.0
44.862090247 26.0
44.875220530 27.0
44.888350812 32.0
44.901481095 42.0
44.914611378 35.0
44.927741660 31.0
44.940871943 37.0
44.954002226 40.0
44.967132508 32.0
44.980262791 38.0
44.993393074 32.0
45.006523356 28.0
45.019653639 38.0
45.032783922 25.0
45.045914204 41.0
45.059044487 37.0
45.072174770 38.0
45.085305052 33.0
45.098435335 46.0
45.111565618 44.0
45.124695900 32.0
45.137826183 34.0
45.150956466 37.0
45.164086748 41.0
45.177217031 43.0
45.190347314 56.0
45.203477596 35.0
45.216607879 36.0
45.229738162 49.0
45.242868445 37.0
45.255998727 51.0
45.269129010 54.0
45.282259293 51.0
45.295389575 41.0
45.308519858 65.0
45.321650141 72.0
45.334780423 70.0
45.347910706 70.0
45.361040989 63.0
45.374171271 97.0
45.387301554 120.0
45.400431837 101.0
45.413562119 135.0
45.426692402 145.0
45.439822685 201.0
45.452952967 244.0
45.466083250 283.0
45.479213533 305.0
45.492343815 336.0
45.505474098 364.0
45.518604381 334.0
45.531734663 306.0
45.544864946 259.0
45.557995229 219.0
45.571125511 239.0
45.584255794 247.0
45.597386077 226.0
45.610516359 212.0
45.623646642 171.0
45.636776925 144.0
45.649907207 105.0
45.663037490 91.0
45.676167773 86.0
45.689298056 65.0
45.702428338 65.0
45.715558621 56.0
45.728688904 48.0
45.741819186 47.0
45.754949469 54.0
45.768079752 40.0
45.781210034 53.0
45.794340317 44.0
45.807470600 35.0
45.820600882 44.0
45.833731165 40.0
45.846861448 51.0
45.859991730 32.0
45.873122013 39.0
45.886252296 36.0
45.899382578 33.0
45.912512861 39.0
45.925643144 36.0
45.938773426 37.0
45.951903709 45.0
45.965033992 41.0
45.978164274 34.0
45.991294557 30.0
46.004424840 38.0
46.017555122 26.0
46.030685405 27.0
46.043815688 30.0
46.056945970 36.0
46.070076253 27.0
46.083206536 37.0
46.096336819 31.0
46.109467101 26.0
46.122597384 35.0
46.135727667 30.0
46.148857949 27.0
46.161988232 27.0
46.175118515 34.0
46.188248797 41.0
46.201379080 32.0
46.214509363 26.0
46.227639645 34.0
46.240769928 32.0
46.253900211 29.0
46.267030493 29.0
46.280160776 23.0
46.293291059 24.0
46.306421341 35.0
46.319551624 34.0
46.332681907 17.0
46.345812189 35.0
46.358942472 41.0
46.372072755 32.0
46.385203037 26.0
46.398333320 39.0
46.411463603 46.0
46.424593885 31.0
46.437724168 28.0
46.450854451 26.0
46.463984733 24.0
46.477115016 27.0
46.490245299 28.0
46.503375581 26.0
46.516505864 23.0
46.529636147 32.0
46.542766430 39.0
46.555896712 31.0
46.569026995 29.0
46.582157278 29.0
46.595287560 31.0
46.608417843 25.0
46.621548126 27.0
46.634678408 38.0
46.647808691 31.0
46.660938974 36.0
46.674069256 25.0
46.687199539 32.0
46.700329822 29.0
46.713460104 22.0
46.726590387 29.0
46.739720670 34.0
46.752850952 25.0
46.765981235 26.0
46.779111518 35.0
46.792241800 27.0
46.805372083 29.0
46.818502366 34.0
46.831632648 22.0
46.844762931 36.0
46.857893214 39.0
46.871023496 34.0
46.884153779 31.0
46.897284062 26.0
46.910414344 38.0
46.923544627 33.0
46.936674910 29.0
46.949805192 36.0
46.962935475 31.0
46.976065758 26.0
46.989196041 28.0
47.002326323 30.0
47.015456606 30.0
47.028586889 33.0
47.041717171 30.0
47.054847454 28.0
47.067977737 29.0
47.081108019 24.0
47.094238302 22.0
47.107368585 24.0
47.120498867 17.0
47.133629150 34.0
47.146759433 33.0
47.159889715 28.0
47.173019998 33.0
47.186150281 25.0
47.199280563 21.0
47.212410846 38.0
47.225541129 20.0
47.238671411 22.0
47.251801694 23.0
47.264931977 26.0
47.278062259 21.0
47.291192542 25.0
47.304322825 27.0
47.317453107 27.0
47.330583390 36.0
47.343713673 30.0
47.356843955 26.0
47.369974238 27.0
47.383104521 37.0
47.396234803 27.0
47.409365086 29.0
47.422495369 26.0
47.435625652 32.0
47.448755934 29.0
47.461886217 32.0
47.475016500 39.0
47.488146782 30.0
47.501277065 28.0
47.514407348 22.0
47.527537630 29.0
47.540667913 32.0
47.553798196 29.0
47.566928478 33.0
47.580058761 34.0
47.593189044 30.0
47.606319326 29.0
47.619449609 35.0
47.632579892 36.0
47.645710174 25.0
47.658840457 33.0
47.671970740 32.0
47.685101022 33.0
47.698231305 41.0
47.711361588 21.0
47.724491870 40.0
47.737622153 28.0
47.750752436 40.0
47.763882718 33.0
47.777013001 32.0
47.790143284 40.0
47.803273566 33.0
47.816403849 27.0
47.829534132 29.0
47.842664414 29.0
47.855794697 26.0
47.868924980 30.0
47.882055263 46.0
47.895185545 35.0
47.908315828 16.0
47.921446111 23.0
47.934576393 25.0
47.947706676 36.0
47.960836959 19.0
47.973967241 35.0
47.987097524 21.0
48.000227807 37.0
48.013358089 43.0
48.026488372 26.0
48.039618655 29.0
48.052748937 32.0
48.065879220 31.0
48.079009503 36.0
48.092139785 32.0
48.105270068 32.0
48.118400351 32.0
48.131530633 38.0
48.144660916 30.0
48.157791199 21.0
48.170921481 35.0
48.184051764 34.0
48.197182047 21.0
48.210312329 30.0
48.223442612 24.0
48.236572895 22.0
48.249703177 28.0
48.262833460 31.0
48.275963743 22.0
48.289094026 22.0
48.302224308 31.0
48.315354591 44.0
48.328484874 26.0
48.341615156 21.0
48.354745439 29.0
48.367875722 32.0
48.381006004 21.0
48.394136287 21.0
48.407266570 18.0
48.420396852 43.0
48.433527135 24.0
48.446657418 35.0
48.459787700 37.0
48.472917983 22.0
48.486048266 30.0
48.499178548 30.0
48.512308831 31.0
48.525439114 28.0
48.538569396 32.0
48.551699679 35.0
48.564829962 24.0
48.577960244 32.0
48.591090527 33.0
48.604220810 24.0
48.617351092 37.0
48.630481375 33.0
48.643611658 47.0
48.656741940 32.0
48.669872223 20.0
48.683002506 25.0
48.696132788 25.0
48.709263071 27.0
48.722393354 32.0
48.735523637 36.0
48.748653919 26.0
48.761784202 29.0
48.774914485 25.0
48.788044767 29.0
48.801175050 31.0
48.814305333 27.0
48.827435615 27.0
48.840565898 28.0
48.853696181 29.0
48.866826463 26.0
48.879956746 36.0
48.893087029 24.0
48.906217311 28.0
48.919347594 19.0
48.932477877 31.0
48.945608159 34.0
48.958738442 32.0
48.971868725 23.0
48.984999007 34.0
48.998129290 33.0
49.011259573 28.0
49.024389855 25.0
49.037520138 24.0
49.050650421 22.0
49.063780703 25.0
49.076910986 24.0
49.090041269 26.0
49.103171551 26.0
49.116301834 27.0
49.129432117 26.0
49.142562399 31.0
49.155692682 25.0
49.168822965 32.0
49.181953248 34.0
49.195083530 37.0
49.208213813 29.0
49.221344096 22.0
49.234474378 32.0
49.247604661 23.0
49.260734944 27.0
49.273865226 29.0
49.286995509 21.0
49.300125792 37.0
49.313256074 34.0
49.326386357 32.0
49.339516640 30.0
49.352646922 39.0
49.365777205 20.0
49.378907488 41.0
49.392037770 33.0
49.405168053 27.0
49.418298336 31.0
49.431428618 29.0
49.444558901 32.0
49.457689184 26.0
49.470819466 26.0
49.483949749 29.0
49.497080032 28.0
49.510210314 34.0
49.523340597 31.0
49.536470880 27.0
49.549601162 25.0
49.562731445 17.0
49.575861728 33.0
49.588992010 32.0
49.602122293 29.0
49.615252576 26.0
49.628382859 24.0
49.641513141 42.0
49.654643424 33.0
49.667773707 20.0
49.680903989 27.0
49.694034272 11.0
49.707164555 27.0
49.720294837 25.0
49.733425120 24.0
49.746555403 24.0
49.759685685 28.0
49.772815968 30.0
49.785946251 27.0
49.799076533 21.0
49.812206816 24.0
49.825337099 32.0
49.838467381 37.0
49.851597664 23.0
49.864727947 24.0
49.877858229 26.0
49.890988512 26.0
49.904118795 15.0
49.917249077 15.0
49.930379360 17.0
49.943509643 26.0
49.956639925 27.0
49.969770208 29.0
49.982900491 28.0
49.996030773 23.0
50.009161056 24.0
50.022291339 20.0
50.035421621 28.0
50.048551904 24.0
50.061682187 34.0
50.074812470 33.0
50.087942752 30.0
50.101073035 20.0
50.114203318 22.0
50.127333600 22.0
50.140463883 29.0
50.153594166 26.0
50.166724448 15.0
50.179854731 23.0
50.192985014 30.0
50.206115296 33.0
50.219245579 22.0
50.232375862 35.0
50.245506144 32.0
50.258636427 30.0
50.271766710 31.0
50.284896992 25.0
50.298027275 25.0
50.311157558 24.0
50.324287840 24.0
50.337418123 26.0
50.350548406 24.0
50.363678688 35.0
50.376808971 26.0
50.389939254 31.0
50.403069536 26.0
50.416199819 26.0
50.429330102 27.0
50.442460384 30.0
50.455590667 28.0
50.468720950 22.0
50.481851233 40.0
50.494981515 34.0
50.508111798 31.0
50.521242081 18.0
50.534372363 28.0
50.547502646 25.0
50.560632929 31.0
50.573763211 30.0
50.586893494 36.0
50.600023777 24.0
50.613154059 18.0
50.626284342 23.0
50.639414625 28.0
50.652544907 24.0
50.665675190 16.0
50.678805473 24.0
50.691935755 29.0
50.705066038 25.0
50.718196321 15.0
50.731326603 23.0
50.744456886 26.0
50.757587169 18.0
50.770717451 23.0
50.783847734 34.0
50.796978017 26.0
50.810108299 31.0
50.823238582 34.0
50.836368865 17.0
50.849499147 24.0
50.862629430 25.0
50.875759713 13.0
50.888889995 13.0
50.902020278 26.0
50.915150561 34.0
50.928280844 17.0
50.941411126 32.0
50.954541409 22.0
50.967671692 22.0
50.980801974 21.0
50.993932257 32.0
51.007062540 27.0
51.020192822 25.0
51.033323105 26.0
51.046453388 24.0
51.059583670 12.0
51.072713953 22.0
51.085844236 30.0
51.098974518 20.0
51.112104801 34.0
51.125235084 22.0
51.138365366 27.0
51.151495649 27.0
51.164625932 19.0
51.177756214 29.0
51.190886497 26.0
51.204016780 20.0
51.217147062 30.0
51.230277345 31.0
51.243407628 29.0
51.256537910 36.0
51.269668193 40.0
51.282798476 27.0
51.295928758 26.0
51.309059041 29.0
51.322189324 38.0
51.335319606 32.0
51.348449889 33.0
51.361580172 20.0
51.374710455 26.0
51.387840737 21.0
51.400971020 17.0
51.414101303 24.0
51.427231585 23.0
51.440361868 32.0
51.453492151 24.0
51.466622433 36.0
51.479752716 24.0
51.492882999 25.0
51.506013281 25.0
51.519143564 33.0
51.532273847 28.0
51.545404129 27.0
51.558534412 28.0
51.571664695 29.0
51.584794977 29.0
51.597925260 24.0
51.611055543 34.0
51.624185825 26.0
51.637316108 42.0
51.650446391 27.0
51.663576673 28.0
51.676706956 26.0
51.689837239 18.0
51.702967521 24.0
51.716097804 21.0
51.729228087 21.0
51.742358369 27.0
51.755488652 30.0
51.768618935 31.0
51.781749217 28.0
51.794879500 31.0
51.808009783 32.0
51.821140066 29.0
51.834270348 17.0
51.847400631 32.0
51.860530914 31.0
51.873661196 31.0
51.886791479 31.0
51.899921762 27.0
51.913052044 29.0
51.926182327 39.0
51.939312610 21.0
51.952442892 28.0
51.965573175 27.0
51.978703458 35.0
51.991833740 24.0
52.004964023 31.0
52.018094306 18.0
52.031224588 19.0
52.044354871 26.0
52.057485154 29.0
52.070615436 27.0
52.083745719 43.0
52.096876002 29.0
52.110006284 23.0
52.123136567 26.0
52.136266850 23.0
52.149397132 33.0
52.162527415 28.0
52.175657698 29.0
52.188787980 25.0
52.201918263 28.0
52.215048546 33.0
52.228178828 27.0
52.241309111 22.0
52.254439394 20.0
52.267569677 21.0
52.280699959 28.0
52.293830242 28.0
52.306960525 30.0
52.320090807 23.0
52.333221090 32.0
52.346351373 20.0
52.359481655 44.0
52.372611938 32.0
52.385742221 36.0
52.398872503 25.0
52.412002786 30.0
52.425133069 34.0
52.438263351 23.0
52.451393634 43.0
52.464523917 38.0
52.477654199 34.0
52.490784482 35.0
52.503914765 38.0
52.517045047 39.0
52.530175330 51.0
52.543305613 33.0
52.556435895 42.0
52.569566178 41.0
52.582696461 40.0
52.595826743 53.0
52.608957026 49.0
52.622087309 49.0
52.635217591 66.0
52.648347874 85.0
52.661478157 86.0
52.674608440 111.0
52.687738722 78.0
52.700869005 99.0
52.713999288 95.0
52.727129570 101.0
52.740259853 108.0
52.753390136 95.0
52.766520418 112.0
52.779650701 99.0
52.792780984 107.0
52.805911266 101.0
52.819041549 86.0
52.832171832 105.0
52.845302114 92.0
52.858432397 100.0
52.871562680 109.0
52.884692962 108.0
52.897823245 115.0
52.910953528 118.0
52.924083810 101.0
52.937214093 112.0
52.950344376 94.0
52.963474658 106.0
52.976604941 100.0
52.989735224 106.0
53.002865506 98.0
53.015995789 117.0
53.029126072 117.0
53.042256354 105.0
53.055386637 135.0
53.068516920 126.0
53.081647202 138.0
53.094777485 126.0
53.107907768 134.0
53.121038051 144.0
53.134168333 150.0
53.147298616 162.0
53.160428899 183.0
53.173559181 210.0
53.186689464 189.0
53.199819747 222.0
53.212950029 221.0
53.226080312 221.0
53.239210595 182.0
53.252340877 184.0
53.265471160 151.0
53.278601443 144.0
53.291731725 116.0
53.304862008 150.0
53.317992291 118.0
53.331122573 138.0
53.344252856 144.0
53.357383139 99.0
53.370513421 115.0
53.383643704 87.0
53.396773987 67.0
53.409904269 73.0
53.423034552 65.0
53.436164835 55.0
53.449295117 48.0
53.462425400 55.0
53.475555683 46.0
53.488685965 35.0
53.501816248 39.0
53.514946531 29.0
53.528076813 43.0
53.541207096 29.0
53.554337379 38.0
53.567467662 41.0
53.580597944 25.0
53.593728227 25.0
53.606858510 36.0
53.619988792 30.0
53.633119075 27.0
53.646249358 39.0
53.659379640 40.0
53.672509923 32.0
53.685640206 21.0
53.698770488 28.0
53.711900771 36.0
53.725031054 33.0
53.738161336 39.0
53.751291619 31.0
53.764421902 30.0
53.777552184 32.0
53.790682467 24.0
53.803812750 22.0
53.816943032 21.0
53.830073315 26.0
53.843203598 25.0
53.856333880 27.0
53.869464163 26.0
53.882594446 19.0
53.895724728 23.0
53.908855011 37.0
53.921985294 27.0
53.935115576 30.0
53.948245859 24.0
53.961376142 28.0
53.974506424 29.0
53.987636707 39.0
54.000766990 20.0
54.013897273 25.0
54.027027555 31.0
54.040157838 31.0
54.053288121 14.0
54.066418403 26.0
54.079548686 34.0
54.092678969 30.0
54.105809251 31.0
54.118939534 25.0
54.132069817 23.0
54.145200099 25.0
54.158330382 20.0
54.171460665 18.0
54.184590947 30.0
54.197721230 15.0
54.210851513 19.0
54.223981795 30.0
54.237112078 17.0
54.250242361 35.0
54.263372643 23.0
54.276502926 23.0
54.289633209 25.0
54.302763491 35.0
54.315893774 23.0
54.329024057 30.0
54.342154339 32.0
54.355284622 24.0
54.368414905 28.0
54.381545187 29.0
54.394675470 26.0
54.407805753 29.0
54.420936035 11.0
54.434066318 18.0
54.447196601 19.0
54.460326884 26.0
54.473457166 29.0
54.486587449 32.0
54.499717732 14.0
54.512848014 26.0
54.525978297 30.0
54.539108580 26.0
54.552238862 27.0
54.565369145 25.0
54.578499428 21.0
54.591629710 25.0
54.604759993 24.0
54.617890276 33.0
54.631020558 22.0
54.644150841 26.0
54.657281124 28.0
54.670411406 28.0
54.683541689 23.0
54.696671972 27.0
54.709802254 22.0
54.722932537 27.0
54.736062820 23.0
54.749193102 30.0
54.762323385 26.0
54.775453668 18.0
54.788583950 30.0
54.801714233 21.0
54.814844516 19.0
54.827974798 30.0
54.841105081 30.0
54.854235364 24.0
54.867365647 33.0
54.880495929 29.0
54.893626212 28.0
54.906756495 32.0
54.919886777 27.0
54.933017060 24.0
54.946147343 23.0
54.959277625 24.0
54.972407908 26.0
54.985538191 32.0
54.998668473 24.0
55.011798756 16.0
55.024929039 20.0
55.038059321 23.0
55.051189604 20.0
55.064319887 24.0
55.077450169 13.0
55.090580452 17.0
55.103710735 29.0
55.116841017 30.0
55.129971300 25.0
55.143101583 26.0
55.156231865 21.0
55.169362148 22.0
55.182492431 19.0
55.195622713 27.0
55.208752996 22.0
55.221883279 25.0
55.235013561 21.0
55.248143844 27.0
55.261274127 22.0
55.274404409 27.0
55.287534692 38.0
55.300664975 27.0
55.313795258 23.0
55.326925540 30.0
55.340055823 30.0
55.353186106 30.0
55.366316388 24.0
55.379446671 29.0
55.392576954 25.0
55.405707236 20.0
55.418837519 26.0
55.431967802 20.0
55.445098084 20.0
55.458228367 29.0
55.471358650 29.0
55.484488932 25.0
55.497619215 12.0
55.510749498 26.0
55.523879780 26.0
55.537010063 23.0
55.550140346 21.0
55.563270628 28.0
55.576400911 13.0
55.589531194 22.0
55.602661476 24.0
55.615791759 25.0
55.628922042 34.0
55.642052324 24.0
55.655182607 24.0
55.668312890 26.0
55.681443172 30.0
55.694573455 28.0
55.707703738 24.0
55.720834020 26.0
55.733964303 21.0
55.747094586 23.0
55.760224869 15.0
55.773355151 14.0
55.786485434 24.0
55.799615717 36.0
55.812745999 35.0
55.825876282 23.0
55.839006565 24.0
55.852136847 26.0
55.865267130 31.0
55.878397413 33.0
55.891527695 25.0
55.904657978 29.0
55.917788261 27.0
55.930918543 27.0
55.944048826 22.0
55.957179109 28.0
55.970309391 23.0
55.983439674 25.0
55.996569957 17.0
56.009700239 29.0
56.022830522 22.0
56.035960805 20.0
56.049091087 22.0
56.062221370 28.0
56.075351653 24.0
56.088481935 22.0
56.101612218 27.0
56.114742501 30.0
56.127872783 18.0
56.141003066 30.0
56.154133349 18.0
56.167263631 30.0
56.180393914 28.0
56.193524197 28.0
56.206654480 23.0
56.219784762 21.0
56.232915045 26.0
56.246045328 31.0
56.259175610 32.0
56.272305893 22.0
56.285436176 18.0
56.298566458 21.0
56.311696741 19.0
56.324827024 18.0
56.337957306 26.0
56.351087589 28.0
56.364217872 17.0
56.377348154 26.0
56.390478437 28.0
56.403608720 29.0
56.416739002 16.0
56.429869285 26.0
56.442999568 19.0
56.456129850 18.0
56.469260133 22.0
56.482390416 39.0
56.495520698 30.0
56.508650981 32.0
56.521781264 21.0
56.534911546 27.0
56.548041829 29.0
56.561172112 36.0
56.574302394 24.0
56.587432677 23.0
56.600562960 29.0
56.613693242 27.0
56.626823525 26.0
56.639953808 27.0
56.653084091 29.0
56.666214373 18.0
56.679344656 30.0
56.692474939 28.0
56.705605221 20.0
56.718735504 27.0
56.731865787 18.0
56.744996069 23.0
56.758126352 23.0
56.771256635 31.0
56.784386917 27.0
56.797517200 32.0
56.810647483 41.0
56.823777765 23.0
56.836908048 11.0
56.850038331 29.0
56.863168613 34.0
56.876298896 17.0
56.889429179 15.0
56.902559461 26.0
56.915689744 26.0
56.928820027 29.0
56.941950309 18.0
56.955080592 26.0
56.968210875 24.0
56.981341157 29.0
56.994471440 25.0
57.007601723 21.0
57.020732005 22.0
57.033862288 33.0
57.046992571 20.0
57.060122854 19.0
57.073253136 21.0
57.086383419 23.0
57.099513702 21.0
57.112643984 27.0
57.125774267 25.0
57.138904550 29.0
57.152034832 19.0
57.165165115 28.0
57.178295398 32.0
57.191425680 35.0
57.204555963 31.0
57.217686246 29.0
57.230816528 26.0
57.243946811 26.0
57.257077094 33.0
57.270207376 19.0
57.283337659 19.0
57.296467942 28.0
57.309598224 35.0
57.322728507 28.0
57.335858790 18.0
57.348989072 39.0
57.362119355 27.0
57.375249638 33.0
57.388379920 39.0
57.401510203 23.0
57.414640486 27.0
57.427770768 17.0
57.440901051 26.0
57.454031334 15.0
57.467161616 24.0
57.480291899 15.0
57.493422182 20.0
57.506552465 26.0
57.519682747 35.0
57.532813030 28.0
57.545943313 16.0
57.559073595 22.0
57.572203878 24.0
57.585334161 20.0
57.598464443 26.0
57.611594726 25.0
57.624725009 17.0
57.637855291 23.0
57.650985574 35.0
57.664115857 36.0
57.677246139 22.0
57.690376422 23.0
57.703506705 21.0
57.716636987 24.0
57.729767270 25.0
57.742897553 21.0
57.756027835 21.0
57.769158118 28.0
57.782288401 32.0
57.795418683 30.0
57.808548966 30.0
57.821679249 24.0
57.834809531 23.0
57.847939814 15.0
57.861070097 24.0
57.874200379 26.0
57.887330662 25.0
57.900460945 23.0
57.913591227 29.0
57.926721510 23.0
57.939851793 19.0
57.952982076 26.0
57.966112358 26.0
57.979242641 32.0
57.992372924 20.0
58.005503206 33.0
58.018633489 22.0
58.031763772 23.0
58.044894054 28.0
58.058024337 22.0
58.071154620 21.0
58.084284902 24.0
58.097415185 34.0
58.110545468 20.0
58.123675750 19.0
58.136806033 16.0
58.149936316 21.0
58.163066598 35.0
58.176196881 22.0
58.189327164 21.0
58.202457446 18.0
58.215587729 26.0
58.228718012 19.0
58.241848294 25.0
58.254978577 26.0
58.268108860 22.0
58.281239142 26.0
58.294369425 27.0
58.307499708 27.0
58.320629990 25.0
58.333760273 16.0
58.346890556 30.0
58.360020838 27.0
58.373151121 21.0
58.386281404 22.0
58.399411687 20.0
58.412541969 25.0
58.425672252 34.0
58.438802535 17.0
58.451932817 20.0
58.465063100 27.0
58.478193383 16.0
58.491323665 26.0
58.504453948 23.0
58.517584231 27.0
58.530714513 23.0
58.543844796 26.0
58.556975079 31.0
58.570105361 25.0
58.583235644 19.0
58.596365927 25.0
58.609496209 33.0
58.622626492 25.0
58.635756775 32.0
58.648887057 20.0
58.662017340 24.0
58.675147623 29.0
58.688277905 23.0
58.701408188 24.0
58.714538471 23.0
58.727668753 39.0
58.740799036 22.0
58.753929319 27.0
58.767059601 27.0
58.780189884 27.0
58.793320167 27.0
58.806450449 26.0
58.819580732 25.0
58.832711015 19.0
58.845841298 28.0
58.858971580 32.0
58.872101863 22.0
58.885232146 28.0
58.898362428 24.0
58.911492711 27.0
58.924622994 21.0
58.937753276 32.0
58.950883559 24.0
58.964013842 31.0
58.977144124 27.0
58.990274407 29.0
59.003404690 28.0
59.016534972 32.0
59.029665255 22.0
59.042795538 24.0
59.055925820 24.0
59.069056103 9.0
59.082186386 29.0
59.095316668 29.0
59.108446951 30.0
59.121577234 26.0
59.134707516 14.0
59.147837799 24.0
59.160968082 32.0
59.174098364 26.0
59.187228647 27.0
59.200358930 26.0
59.213489212 24.0
59.226619495 35.0
59.239749778 33.0
59.252880061 22.0
59.266010343 29.0
59.279140626 27.0
59.292270909 26.0
59.305401191 21.0
59.318531474 33.0
59.331661757 32.0
59.344792039 28.0
59.357922322 33.0
59.371052605 44.0
59.384182887 20.0
59.397313170 27.0
59.410443453 18.0
59.423573735 25.0
59.436704018 27.0
59.449834301 35.0
59.462964583 27.0
59.476094866 46.0
59.489225149 43.0
59.502355431 27.0
59.515485714 44.0
59.528615997 33.0
59.541746279 32.0
59.554876562 33.0
59.568006845 32.0
59.581137127 47.0
59.594267410 46.0
59.607397693 50.0
59.620527975 48.0
59.633658258 41.0
59.646788541 36.0
59.659918823 38.0
59.673049106 39.0
59.686179389 58.0
59.699309672 40.0
59.712439954 34.0
59.725570237 38.0
59.738700520 40.0
59.751830802 56.0
59.764961085 52.0
59.778091368 49.0
59.791221650 40.0
59.804351933 52.0
59.817482216 57.0
59.830612498 48.0
59.843742781 48.0
59.856873064 61.0
59.870003346 48.0
59.883133629 45.0
59.896263912 72.0
59.909394194 63.0
59.922524477 59.0
59.935654760 58.0
59.948785042 52.0
59.961915325 61.0
59.975045608 68.0
59.988175890 60.0
60.001306173 72.0
60.014436456 57.0
60.027566738 61.0
60.040697021 71.0
60.053827304 63.0
60.066957586 54.0
60.080087869 73.0
60.093218152 69.0
60.106348434 58.0
60.119478717 73.0
60.132609000 63.0
60.145739283 55.0
60.158869565 42.0
60.171999848 40.0
60.185130131 48.0
60.198260413 50.0
60.211390696 46.0
60.224520979 35.0
60.237651261 34.0
60.250781544 35.0
60.263911827 31.0
60.277042109 35.0
60.290172392 33.0
60.303302675 35.0
60.316432957 35.0
60.329563240 26.0
60.342693523 28.0
60.355823805 26.0
60.368954088 32.0
60.382084371 12.0
60.395214653 26.0
60.408344936 28.0
60.421475219 30.0
60.434605501 24.0
60.447735784 22.0
60.460866067 21.0
60.473996349 14.0
60.487126632 16.0
60.500256915 19.0
60.513387197 24.0
60.526517480 25.0
60.539647763 17.0
60.552778045 21.0
60.565908328 23.0
60.579038611 27.0
60.592168894 23.0
60.605299176 25.0
60.618429459 31.0
60.631559742 26.0
60.644690024 21.0
60.657820307 30.0
60.670950590 25.0
60.684080872 22.0
60.697211155 25.0
60.710341438 23.0
60.723471720 33.0
60.736602003 27.0
60.749732286 26.0
60.762862568 21.0
60.775992851 16.0
60.789123134 29.0
60.802253416 22.0
60.815383699 13.0
60.828513982 25.0
60.841644264 18.0
60.854774547 37.0
60.867904830 25.0
60.881035112 27.0
60.894165395 19.0
60.907295678 18.0
60.920425960 20.0
60.933556243 18.0
60.946686526 25.0
60.959816808 22.0
60.972947091 24.0
60.986077374 30.0
60.999207656 23.0
61.012337939 28.0
61.025468222 26.0
61.038598505 27.0
61.051728787 15.0
61.064859070 32.0
61.077989353 19.0
61.091119635 31.0
61.104249918 22.0
61.117380201 19.0
61.130510483 32.0
61.143640766 18.0
61.156771049 26.0
61.169901331 30.0
61.183031614 25.0
61.196161897 21.0
61.209292179 25.0
61.222422462 17.0
61.235552745 19.0
61.248683027 27.0
61.261813310 20.0
61.274943593 23.0
61.288073875 29.0
61.301204158 17.0
61.314334441 25.0
61.327464723 23.0
61.340595006 25.0
61.353725289 22.0
61.366855571 35.0
61.379985854 19.0
61.393116137 23.0
61.406246419 26.0
61.419376702 19.0
61.432506985 18.0
61.445637268 17.0
61.458767550 25.0
61.471897833 33.0
61.485028116 20.0
61.498158398 21.0
61.511288681 30.0
61.524418964 20.0
61.537549246 26.0
61.550679529 17.0
61.563809812 18.0
61.576940094 26.0
61.590070377 20.0
61.603200660 26.0
61.616330942 25.0
61.629461225 18.0
61.642591508 25.0
61.655721790 21.0
61.668852073 18.0
61.681982356 34.0
61.695112638 33.0
61.708242921 28.0
61.721373204 21.0
61.734503486 34.0
61.747633769 29.0
61.760764052 25.0
61.773894334 14.0
61.787024617 20.0
61.800154900 17.0
61.813285182 21.0
61.826415465 16.0
61.839545748 28.0
61.852676030 15.0
61.865806313 20.0
61.878936596 18.0
61.892066879 24.0
61.905197161 26.0
61.918327444 21.0
61.931457727 20.0
61.944588009 20.0
61.957718292 23.0
61.970848575 29.0
61.983978857 15.0
61.997109140 30.0
62.010239423 27.0
62.023369705 31.0
62.036499988 21.0
62.049630271 19.0
62.062760553 20.0
62.075890836 22.0
62.089021119 28.0
62.102151401 23.0
62.115281684 29.0
62.128411967 23.0
62.141542249 16.0
62.154672532 26.0
62.167802815 22.0
62.180933097 24.0
62.194063380 27.0
62.207193663 22.0
62.220323945 22.0
62.233454228 31.0
62.246584511 28.0
62.259714793 20.0
62.272845076 18.0
62.285975359 19.0
62.299105641 31.0
62.312235924 9.0
62.325366207 22.0
62.338496490 29.0
62.351626772 32.0
62.364757055 19.0
62.377887338 30.0
62.391017620 24.0
62.404147903 21.0
62.417278186 11.0
62.430408468 19.0
62.443538751 26.0
62.456669034 25.0
62.469799316 26.0
62.482929599 27.0
62.496059882 17.0
62.509190164 27.0
62.522320447 20.0
62.535450730 27.0
62.548581012 17.0
62.561711295 20.0
62.574841578 25.0
62.587971860 12.0
62.601102143 23.0
62.614232426 22.0
62.627362708 17.0
62.640492991 22.0
62.653623274 26.0
62.666753556 20.0
62.679883839 22.0
62.693014122 21.0
62.706144404 26.0
62.719274687 25.0
62.732404970 21.0
62.745535252 13.0
62.758665535 32.0
62.771795818 19.0
62.784926101 35.0
62.798056383 28.0
62.811186666 19.0
62.824316949 25.0
62.837447231 21.0
62.850577514 25.0
62.863707797 20.0
62.876838079 27.0
62.889968362 20.0
62.903098645 17.0
62.916228927 29.0
62.929359210 25.0
62.942489493 29.0
62.955619775 17.0
62.968750058 21.0
62.981880341 21.0
62.995010623 26.0
63.008140906 20.0
63.021271189 34.0
63.034401471 22.0
63.047531754 28.0
63.060662037 15.0
63.073792319 19.0
63.086922602 24.0
63.100052885 34.0
63.113183167 22.0
63.126313450 21.0
63.139443733 19.0
63.152574015 31.0
63.165704298 23.0
63.178834581 15.0
63.191964863 23.0
63.205095146 22.0
63.218225429 28.0
63.231355712 31.0
63.244485994 22.0
63.257616277 28.0
63.270746560 35.0
63.283876842 32.0
63.297007125 14.0
63.310137408 17.0
63.323267690 25.0
63.336397973 20.0
63.349528256 16.0
63.362658538 23.0
63.375788821 25.0
63.388919104 29.0
63.402049386 20.0
63.415179669 25.0
63.428309952 19.0
63.441440234 22.0
63.454570517 16.0
63.467700800 16.0
63.480831082 29.0
63.493961365 14.0
63.507091648 21.0
63.520221930 40.0
63.533352213 23.0
63.546482496 21.0
63.559612778 28.0
63.572743061 15.0
63.585873344 16.0
63.599003626 18.0
63.612133909 24.0
63.625264192 29.0
63.638394475 23.0
63.651524757 30.0
63.664655040 34.0
63.677785323 21.0
63.690915605 20.0
63.704045888 19.0
63.717176171 27.0
63.730306453 23.0
63.743436736 30.0
63.756567019 29.0
63.769697301 17.0
63.782827584 32.0
63.795957867 22.0
63.809088149 29.0
63.822218432 24.0
63.835348715 22.0
63.848478997 22.0
63.861609280 26.0
63.874739563 21.0
63.887869845 22.0
63.901000128 34.0
63.914130411 23.0
63.927260693 22.0
63.940390976 30.0
63.953521259 20.0
63.966651541 13.0
63.979781824 22.0
63.992912107 13.0
64.006042389 19.0
64.019172672 21.0
64.032302955 27.0
64.045433237 25.0
64.058563520 38.0
64.071693803 28.0
64.084824086 17.0
64.097954368 26.0
64.111084651 31.0
64.124214934 32.0
64.137345216 24.0
64.150475499 23.0
64.163605782 32.0
64.176736064 28.0
64.189866347 27.0
64.202996630 30.0
64.216126912 18.0
64.229257195 18.0
64.242387478 14.0
64.255517760 20.0
64.268648043 27.0
64.281778326 20.0
64.294908608 28.0
64.308038891 26.0
64.321169174 28.0
64.334299456 28.0
64.347429739 28.0
64.360560022 22.0
64.373690304 18.0
64.386820587 26.0
64.399950870 25.0
64.413081152 22.0
64.426211435 27.0
64.439341718 33.0
64.452472000 28.0
64.465602283 25.0
64.478732566 28.0
64.491862848 23.0
64.504993131 24.0
64.518123414 16.0
64.531253697 34.0
64.544383979 27.0
64.557514262 26.0
64.570644545 27.0
64.583774827 26.0
64.596905110 28.0
64.610035393 18.0
64.623165675 19.0
64.636295958 19.0
64.649426241 17.0
64.662556523 11.0
64.675686806 22.0
64.688817089 21.0
64.701947371 32.0
64.715077654 9.0
64.728207937 18.0
64.741338219 24.0
64.754468502 17.0
64.767598785 17.0
64.780729067 19.0
64.793859350 24.0
64.806989633 22.0
64.820119915 23.0
64.833250198 22.0
64.846380481 23.0
64.859510763 23.0
64.872641046 15.0
64.885771329 10.0
64.898901611 18.0
64.912031894 30.0
64.925162177 24.0
64.938292459 22.0
64.951422742 13.0
64.964553025 23.0
64.977683308 23.0
64.990813590 21.0
65.003943873 23.0
65.017074156 30.0
65.030204438 30.0
65.043334721 31.0
65.056465004 22.0
65.069595286 25.0
65.082725569 17.0
65.095855852 14.0
65.108986134 18.0
65.122116417 20.0
65.135246700 19.0
65.148376982 22.0
65.161507265 21.0
65.174637548 19.0
65.187767830 24.0
65.200898113 21.0
65.214028396 23.0
65.227158678 29.0
65.240288961 24.0
65.253419244 20.0
65.266549526 28.0
65.279679809 24.0
65.292810092 29.0
65.305940374 24.0
65.319070657 18.0
65.332200940 26.0
65.345331222 23.0
65.358461505 26.0
65.371591788 18.0
65.384722070 25.0
65.397852353 22.0
65.410982636 31.0
65.424112919 28.0
65.437243201 34.0
65.450373484 34.0
65.463503767 32.0
65.476634049 37.0
65.489764332 26.0
65.502894615 22.0
65.516024897 26.0
65.529155180 28.0
65.542285463 25.0
65.555415745 27.0
65.568546028 21.0
65.581676311 20.0
65.594806593 34.0
65.607936876 28.0
65.621067159 20.0
65.634197441 26.0
65.647327724 36.0
65.660458007 26.0
65.673588289 26.0
65.686718572 29.0
65.699848855 33.0
65.712979137 39.0
65.726109420 39.0
65.739239703 33.0
65.752369985 27.0
65.765500268 29.0
65.778630551 25.0
65.791760833 42.0
65.804891116 29.0
65.818021399 39.0
65.831151682 27.0
65.844281964 23.0
65.857412247 37.0
65.870542530 34.0
65.883672812 42.0
65.896803095 38.0
65.909933378 35.0
65.923063660 59.0
65.936193943 47.0
65.949324226 36.0
65.962454508 43.0
65.975584791 57.0
65.988715074 62.0
66.001845356 64.0
66.014975639 65.0
66.028105922 71.0
66.041236204 73.0
66.054366487 101.0
66.067496770 106.0
66.080627052 96.0
66.093757335 122.0
66.106887618 97.0
66.120017900 123.0
66.133148183 127.0
66.146278466 136.0
66.159408748 123.0
66.172539031 137.0
66.185669314 108.0
66.198799596 132.0
66.211929879 138.0
66.225060162 126.0
66.238190444 130.0
66.251320727 158.0
66.264451010 165.0
66.277581293 178.0
66.290711575 163.0
66.303841858 172.0
66.316972141 187.0
66.330102423 153.0
66.343232706 172.0
66.356362989 204.0
66.369493271 234.0
66.382623554 195.0
66.395753837 248.0
66.408884119 227.0
66.422014402 241.0
66.435144685 237.0
66.448274967 205.0
66.461405250 202.0
66.474535533 189.0
66.487665815 167.0
66.500796098 142.0
66.513926381 152.0
66.527056663 117.0
66.540186946 135.0
66.553317229 137.0
66.566447511 131.0
66.579577794 149.0
66.592708077 126.0
66.605838359 96.0
66.618968642 93.0
66.632098925 87.0
66.645229207 68.0
66.658359490 64.0
66.671489773 67.0
66.684620055 58.0
66.697750338 42.0
66.710880621 43.0
66.724010904 35.0
66.737141186 39.0
66.750271469 29.0
66.763401752 29.0
66.776532034 31.0
66.789662317 34.0
66.802792600 30.0
66.815922882 29.0
66.829053165 33.0
66.842183448 22.0
66.855313730 32.0
66.868444013 30.0
66.881574296 21.0
66.894704578 26.0
66.907834861 27.0
66.920965144 20.0
66.934095426 26.0
66.947225709 14.0
66.960355992 21.0
66.973486274 27.0
66.986616557 27.0
66.999746840 25.0
67.012877122 31.0
67.026007405 21.0
67.039137688 21.0
67.052267970 19.0
67.065398253 28.0
67.078528536 24.0
67.091658818 26.0
67.104789101 25.0
67.117919384 25.0
67.131049666 27.0
67.144179949 19.0
67.157310232 24.0
67.170440515 26.0
67.183570797 30.0
67.196701080 32.0
67.209831363 31.0
67.222961645 27.0
67.236091928 23.0
67.249222211 29.0
67.262352493 22.0
67.275482776 29.0
67.288613059 31.0
67.301743341 27.0
67.314873624 21.0
67.328003907 25.0
67.341134189 21.0
67.354264472 17.0
67.367394755 21.0
67.380525037 34.0
67.393655320 22.0
67.406785603 21.0
67.419915885 25.0
67.433046168 25.0
67.446176451 24.0
67.459306733 24.0
67.472437016 24.0
67.485567299 24.0
67.498697581 23.0
67.511827864 28.0
67.524958147 28.0
67.538088429 23.0
67.551218712 20.0
67.564348995 27.0
67.577479277 29.0
67.590609560 20.0
67.603739843 18.0
67.616870126 19.0
67.630000408 26.0
67.643130691 18.0
67.656260974 26.0
67.669391256 24.0
67.682521539 24.0
67.695651822 26.0
67.708782104 17.0
67.721912387 15.0
67.735042670 23.0
67.748172952 26.0
67.761303235 21.0
67.774433518 20.0
67.787563800 16.0
67.800694083 14.0
67.813824366 19.0
67.826954648 12.0
67.840084931 23.0
67.853215214 16.0
67.866345496 28.0
67.879475779 26.0
67.892606062 21.0
67.905736344 16.0
67.918866627 28.0
67.931996910 30.0
67.945127192 35.0
67.958257475 21.0
67.971387758 23.0
67.984518040 18.0
67.997648323 25.0
68.010778606 18.0
68.023908889 16.0
68.037039171 27.0
68.050169454 27.0
68.063299737 25.0
68.076430019 25.0
68.089560302 28.0
68.102690585 24.0
68.115820867 12.0
68.128951150 25.0
68.142081433 23.0
68.155211715 23.0
68.168341998 24.0
68.181472281 24.0
68.194602563 21.0
68.207732846 20.0
68.220863129 19.0
68.233993411 19.0
68.247123694 17.0
68.260253977 13.0
68.273384259 29.0
68.286514542 24.0
68.299644825 18.0
68.312775107 23.0
68.325905390 28.0
68.339035673 24.0
68.352165955 28.0
68.365296238 28.0
68.378426521 25.0
68.391556803 23.0
68.404687086 14.0
68.417817369 21.0
68.430947651 23.0
68.444077934 22.0
68.457208217 31.0
68.470338500 18.0
68.483468782 26.0
68.496599065 19.0
68.509729348 24.0
68.522859630 23.0
68.535989913 21.0
68.549120196 21.0
68.562250478 22.0
68.575380761 17.0
68.588511044 19.0
68.601641326 23.0
68.614771609 24.0
68.627901892 28.0
68.641032174 28.0
68.654162457 12.0
68.667292740 17.0
68.680423022 30.0
68.693553305 25.0
68.706683588 18.0
68.719813870 24.0
68.732944153 22.0
68.746074436 20.0
68.759204718 16.0
68.772335001 28.0
68.785465284 15.0
68.798595566 17.0
68.811725849 16.0
68.824856132 26.0
68.837986414 20.0
68.851116697 27.0
68.864246980 21.0
68.877377262 19.0
68.890507545 20.0
68.903637828 19.0
68.916768111 24.0
68.929898393 17.0
68.943028676 21.0
68.956158959 25.0
68.969289241 29.0
68.982419524 24.0
68.995549807 31.0
69.008680089 25.0
69.021810372 18.0
69.034940655 21.0
69.048070937 24.0
69.061201220 17.0
69.074331503 24.0
69.087461785 23.0
69.100592068 29.0
69.113722351 26.0
69.126852633 27.0
69.139982916 32.0
69.153113199 24.0
69.166243481 22.0
69.179373764 28.0
69.192504047 18.0
69.205634329 30.0
69.218764612 17.0
69.231894895 33.0
69.245025177 36.0
69.258155460 22.0
69.271285743 34.0
69.284416025 25.0
69.297546308 28.0
69.310676591 19.0
69.323806873 14.0
69.336937156 18.0
69.350067439 29.0
69.363197722 28.0
69.376328004 23.0
69.389458287 22.0
69.402588570 22.0
69.415718852 26.0
69.428849135 26.0
69.441979418 17.0
69.455109700 24.0
69.468239983 19.0
69.481370266 20.0
69.494500548 18.0
69.507630831 23.0
69.520761114 21.0
69.533891396 23.0
69.547021679 20.0
69.560151962 18.0
69.573282244 16.0
69.586412527 23.0
69.599542810 19.0
69.612673092 14.0
69.625803375 32.0
69.638933658 29.0
69.652063940 26.0
69.665194223 22.0
69.678324506 25.0
69.691454788 10.0
69.704585071 23.0
69.717715354 17.0
69.730845636 26.0
69.743975919 37.0
69.757106202 18.0
69.770236484 33.0
69.783366767 31.0
69.796497050 18.0
69.809627333 23.0
69.822757615 30.0
69.835887898 20.0
69.849018181 19.0
69.862148463 25.0
69.875278746 21.0
69.888409029 18.0
69.901539311 28.0
69.914669594 26.0
69.927799877 21.0
69.940930159 24.0
69.954060442 22.0
69.967190725 39.0
69.980321007 17.0
69.993451290 19.0
