RamanShift,MW0
99.1,0.000850501
100.07,0.000852985
101.03,0.000866277
102,0.000885935
102.96,0.000905614
103.93,0.000927886
104.89,0.000957801
105.85,0.00098161
106.82,0.001006627
107.78,0.001033766
108.75,0.001058801
109.71,0.00106908
110.68,0.001067321
111.64,0.001060137
112.6,0.001051112
113.57,0.001045264
114.53,0.001053381
115.5,0.00107428
116.46,0.001095152
117.43,0.001113212
118.39,0.001127275
119.35,0.00114219
120.32,0.001163503
121.28,0.001187004
122.25,0.001208149
123.21,0.001220918
124.17,0.001228236
125.14,0.001236787
126.1,0.001242179
127.07,0.001241296
128.03,0.001231571
129,0.0012292
129.96,0.00123656
130.92,0.001250326
131.89,0.001266735
132.85,0.001279319
133.82,0.001284118
134.78,0.001286349
135.75,0.001289116
136.71,0.001294475
137.67,0.001302427
138.64,0.001317526
139.6,0.001339294
140.57,0.001366241
141.53,0.001394183
142.5,0.001408709
143.46,0.001400749
144.42,0.001383661
145.39,0.00136458
146.35,0.00134769
147.32,0.001335045
148.28,0.001331914
149.25,0.001341069
150.21,0.001360313
151.17,0.00138391
152.14,0.001397363
153.1,0.00140082
154.07,0.001396358
155.03,0.00138602
155.99,0.001372902
156.96,0.001365203
157.92,0.001362308
158.89,0.001360263
159.85,0.001355907
160.82,0.0013524
161.78,0.001351586
162.74,0.001347703
163.71,0.001341335
164.67,0.001334116
165.64,0.001329573
166.6,0.001329176
167.57,0.001336286
168.53,0.001352165
169.49,0.001377016
170.46,0.00140608
171.42,0.001430921
172.39,0.001446052
173.35,0.001447781
174.32,0.001434026
175.28,0.001409083
176.24,0.00138993
177.21,0.001380118
178.17,0.001378632
179.14,0.001381401
180.1,0.001379728
181.06,0.001379103
182.03,0.001382658
182.99,0.001389405
183.96,0.001395127
184.92,0.001391694
185.89,0.001385504
186.85,0.001380908
187.81,0.00137987
188.78,0.001381926
189.74,0.001377122
190.71,0.001370808
191.67,0.001368048
192.64,0.0013715
193.6,0.001377796
194.56,0.001382137
195.53,0.001392251
196.49,0.001408528
197.46,0.001427944
198.42,0.001440049
199.39,0.001447607
200.35,0.001457256
201.31,0.001468661
202.28,0.001480962
203.24,0.001495479
204.21,0.001508384
205.17,0.001511643
206.13,0.00150645
207.1,0.001496937
208.06,0.001495228
209.03,0.001509196
209.99,0.001533867
210.96,0.001563479
211.92,0.001591355
212.88,0.001609327
213.85,0.0016267
214.81,0.001647964
215.78,0.001673436
216.74,0.001701833
217.71,0.001736879
218.67,0.001773869
219.63,0.001804005
220.6,0.00182785
221.56,0.001849984
222.53,0.001878302
223.49,0.001898113
224.46,0.001909194
225.42,0.001913512
226.38,0.001915915
227.35,0.001919854
228.31,0.001933396
229.28,0.001960713
230.24,0.002000265
231.2,0.002046771
232.17,0.002089455
233.13,0.002120973
234.1,0.002137848
235.06,0.002142733
236.03,0.002145393
236.99,0.002161165
237.95,0.002179934
238.92,0.002208834
239.88,0.002249444
240.85,0.002300252
241.81,0.002347358
242.78,0.002398771
243.74,0.002455285
244.7,0.002510277
245.67,0.002553172
246.63,0.002579948
247.6,0.00261752
248.56,0.002675958
249.53,0.002758087
250.49,0.002859364
251.45,0.002961321
252.42,0.003037134
253.38,0.003087402
254.35,0.003113849
255.31,0.003121178
256.27,0.003120657
257.24,0.00314237
258.2,0.003181869
259.17,0.003231573
260.13,0.003284869
261.1,0.003359648
262.06,0.003451694
263.02,0.003538445
263.99,0.003615377
264.95,0.003683846
265.92,0.003756989
266.88,0.003827785
267.85,0.003885958
268.81,0.00392569
269.77,0.003947689
270.74,0.003957494
271.7,0.00397626
272.67,0.004012273
273.63,0.004064155
274.6,0.004128923
275.56,0.004205065
276.52,0.004288856
277.49,0.004374397
278.45,0.00445913
279.42,0.004542301
280.38,0.004624563
281.35,0.004707291
282.31,0.00479211
283.27,0.004883602
284.24,0.004983422
285.2,0.005087724
286.17,0.005178239
287.13,0.005254238
288.09,0.005317531
289.06,0.005373077
290.02,0.005426872
290.99,0.005512156
291.95,0.005623918
292.92,0.005749916
293.88,0.005880255
294.84,0.006010256
295.81,0.006113118
296.77,0.00618965
297.74,0.006262807
298.7,0.006347788
299.67,0.0064528
300.63,0.006562468
301.59,0.00667008
302.56,0.006773084
303.52,0.006862616
304.49,0.00692956
305.45,0.006969096
306.42,0.007011923
307.38,0.007073985
308.34,0.007169581
309.31,0.0073064
310.27,0.007478879
311.24,0.007622802
312.2,0.007736578
313.16,0.007831048
314.13,0.007917919
315.09,0.007986233
316.06,0.00807198
317.02,0.008200607
317.99,0.008352994
318.95,0.008501997
319.91,0.008618417
320.88,0.00868826
321.84,0.008737173
322.81,0.008792365
323.77,0.008875704
324.74,0.009003679
325.7,0.009152779
326.66,0.009283643
327.63,0.009399171
328.59,0.009500455
329.56,0.009594628
330.52,0.009686691
331.49,0.009812296
332.45,0.009959028
333.41,0.010108819
334.38,0.010245121
335.34,0.010367405
336.31,0.01047917
337.27,0.010582149
338.23,0.010686828
339.2,0.010803139
340.16,0.01093656
341.13,0.011093344
342.09,0.01127282
343.06,0.011469355
344.02,0.011668961
344.98,0.011853171
345.95,0.011996693
346.91,0.012094578
347.88,0.012173551
348.84,0.012267526
349.81,0.012413018
350.77,0.012580064
351.73,0.012731524
352.7,0.012886669
353.66,0.013051709
354.63,0.013227822
355.59,0.013398377
356.56,0.013569835
357.52,0.013747775
358.48,0.013921899
359.45,0.01407668
360.41,0.014189919
361.38,0.014291874
362.34,0.014409132
363.3,0.01453933
364.27,0.014680694
365.23,0.014830991
366.2,0.015015883
367.16,0.015206868
368.13,0.015384921
369.09,0.015541056
370.05,0.015682
371.02,0.015835733
371.98,0.016017951
372.95,0.01621974
373.91,0.016415511
374.88,0.016583685
375.84,0.01671485
376.8,0.01683346
377.77,0.016949873
378.73,0.017074718
379.7,0.017221157
380.66,0.017401482
381.63,0.017597348
382.59,0.01777681
383.55,0.017939669
384.52,0.018087754
385.48,0.018222335
386.45,0.018355334
387.41,0.018525646
388.37,0.018726815
389.34,0.018955044
390.3,0.019208539
391.27,0.01948964
392.23,0.019751518
393.2,0.020003591
394.16,0.020245773
395.12,0.020466757
396.09,0.020636115
397.05,0.020775112
398.02,0.020937292
398.98,0.021116498
399.95,0.021312824
400.91,0.021529298
401.87,0.021786958
402.84,0.022058181
403.8,0.022322769
404.77,0.022577124
405.73,0.022810909
406.7,0.023010015
407.66,0.02319673
408.62,0.023423135
409.59,0.023679369
410.55,0.023936741
411.52,0.024156158
412.48,0.024305674
413.44,0.024435522
414.41,0.024593525
415.37,0.024808353
416.34,0.025089011
417.3,0.025407971
418.27,0.02571197
419.23,0.025991371
420.19,0.026253732
421.16,0.026509713
422.12,0.026771325
423.09,0.027024184
424.05,0.027234785
425.02,0.027415211
425.98,0.02758836
426.94,0.027787852
427.91,0.0280352
428.87,0.028338455
429.84,0.028669225
430.8,0.028998315
431.77,0.02930916
432.73,0.029593414
433.69,0.029831813
434.66,0.030042486
435.62,0.030241724
436.59,0.030449858
437.55,0.030682077
438.52,0.030952526
439.48,0.031240983
440.44,0.031567327
441.41,0.031933701
442.37,0.0323155
443.34,0.032657284
444.3,0.032969934
445.26,0.033261471
446.23,0.033500448
447.19,0.03369847
448.16,0.033912336
449.12,0.034217968
450.09,0.034603988
451.05,0.035021063
452.01,0.03542219
452.98,0.035774495
453.94,0.036057532
454.91,0.036324836
455.87,0.036610821
456.84,0.036896414
457.8,0.037160568
458.76,0.037397131
459.73,0.037635586
460.69,0.037897978
461.66,0.038186754
462.62,0.038491154
463.59,0.038803081
464.55,0.03910812
465.51,0.039407169
466.48,0.039700533
467.44,0.039989374
468.41,0.040276861
469.37,0.040554409
470.33,0.040793764
471.3,0.041021533
472.26,0.04129272
473.23,0.041631638
474.19,0.042027435
475.16,0.042449525
476.12,0.042795059
477.08,0.0430347
478.05,0.043211455
479.01,0.043382769
479.98,0.043608793
480.94,0.043915998
481.91,0.044290002
482.87,0.044673414
483.83,0.04503984
484.8,0.045378132
485.76,0.045687481
486.73,0.045967385
487.69,0.046198191
488.66,0.046373609
489.62,0.04651793
490.58,0.046676651
491.55,0.046906819
492.51,0.047241627
493.48,0.047644521
494.44,0.048065736
495.4,0.04845123
496.37,0.048750251
497.33,0.048959566
498.3,0.049145507
499.26,0.049294701
500.23,0.049398857
501.19,0.049465655
502.15,0.049525358
503.12,0.049593881
504.08,0.049655035
505.05,0.049732809
506.01,0.049836594
506.98,0.049962328
507.94,0.050065998
508.9,0.050077379
509.87,0.050058709
510.83,0.050072003
511.8,0.050137917
512.76,0.050232296
513.73,0.050290706
514.69,0.050325357
515.65,0.0503162
516.62,0.050242963
517.58,0.050131067
518.55,0.050052764
519.51,0.05001908
520.47,0.049929487
521.44,0.049813525
522.4,0.049687957
523.37,0.04956144
524.33,0.049421229
525.3,0.049271612
526.26,0.049119459
527.22,0.048948354
528.19,0.048751055
529.15,0.048532232
530.12,0.048323494
531.08,0.048125749
532.05,0.047919201
533.01,0.047709938
533.97,0.047501274
534.94,0.047297568
535.9,0.047062532
536.87,0.046820643
537.83,0.046567516
538.8,0.046268806
539.76,0.045907016
540.72,0.045505432
541.69,0.045149977
542.65,0.044871164
543.62,0.044636032
544.58,0.044400525
545.54,0.044134001
546.51,0.043833062
547.47,0.043536856
548.44,0.043225642
549.4,0.042875291
550.37,0.042477824
551.33,0.042036173
552.29,0.041567768
553.26,0.041121037
554.22,0.040739686
555.19,0.040449492
556.15,0.040229092
557.12,0.040030704
558.08,0.039759391
559.04,0.039383177
560.01,0.038975416
560.97,0.038558876
561.94,0.038145506
562.9,0.037743854
563.87,0.037364642
564.83,0.036991604
565.79,0.036604009
566.76,0.036212896
567.72,0.03583375
568.69,0.03549359
569.65,0.035217621
570.62,0.034932721
571.58,0.034547193
572.54,0.034076256
573.51,0.033572364
574.47,0.033105898
575.44,0.032721783
576.4,0.032404001
577.36,0.032093796
578.33,0.031749812
579.29,0.031353927
580.26,0.030914313
581.22,0.030468275
582.19,0.030059783
583.15,0.029692598
584.11,0.029354369
585.08,0.029038911
586.04,0.028757014
587.01,0.028541306
587.97,0.028348973
588.94,0.028126159
589.9,0.027846255
590.86,0.027510502
591.83,0.027156762
592.79,0.026847958
593.76,0.026606217
594.72,0.026410112
595.69,0.02622573
596.65,0.026013015
597.61,0.025752534
598.58,0.025458169
599.54,0.025188865
600.51,0.024979161
601.47,0.024832054
602.43,0.024726336
603.4,0.024634026
604.36,0.024569184
605.33,0.024515608
606.29,0.024467327
607.26,0.024434177
608.22,0.024427738
609.18,0.024461381
610.15,0.024524296
611.11,0.02459936
612.08,0.024701585
613.04,0.024830091
614.01,0.024970865
614.97,0.025102594
615.93,0.025288275
616.9,0.025602519
617.86,0.026017032
618.83,0.026443811
619.79,0.026790678
620.76,0.027040244
621.72,0.027332578
622.68,0.027713822
623.65,0.028082591
624.61,0.028394989
625.58,0.028658335
626.54,0.028919321
627.5,0.029199386
628.47,0.029439122
629.43,0.029612331
630.4,0.029701194
631.36,0.029697554
632.33,0.029619204
633.29,0.029546327
634.25,0.029529817
635.22,0.029541453
636.18,0.029533871
637.15,0.029460001
638.11,0.029285082
639.08,0.028995022
640.04,0.028610729
641,0.028200625
641.97,0.027775869
642.93,0.027338092
643.9,0.026904239
644.86,0.026492308
645.83,0.026095379
646.79,0.02574369
647.75,0.025438037
648.72,0.025141073
649.68,0.024785163
650.65,0.02433243
651.61,0.023871854
652.57,0.023449154
653.54,0.023071876
654.5,0.022728359
655.47,0.022415562
656.43,0.022145358
657.4,0.021886744
658.36,0.021596069
659.32,0.021287489
660.29,0.021001697
661.25,0.020772878
662.22,0.020614746
663.18,0.020461232
664.15,0.020275004
665.11,0.020069293
666.07,0.019875366
667.04,0.01972188
668,0.01960689
668.97,0.019501635
669.93,0.019382873
670.9,0.019239621
671.86,0.019072577
672.82,0.018893396
673.79,0.018726657
674.75,0.018590326
675.72,0.018460903
676.68,0.018307703
677.64,0.018130665
678.61,0.017954655
679.57,0.017825224
680.54,0.017733172
681.5,0.017617152
682.47,0.017468986
683.43,0.017287991
684.39,0.017078407
685.36,0.016840543
686.32,0.01656777
687.29,0.016295692
688.25,0.016082427
689.22,0.0159511
690.18,0.015876222
691.14,0.015798033
692.11,0.015672456
693.07,0.015535685
694.04,0.015377853
695,0.015190853
695.97,0.014985663
696.93,0.014791142
697.89,0.014646714
698.86,0.014554316
699.82,0.014431302
700.79,0.014253921
701.75,0.01403649
702.72,0.013815429
703.68,0.013634079
704.64,0.013529143
705.61,0.013460342
706.57,0.013386476
707.54,0.013300312
708.5,0.013205951
709.46,0.013109683
710.43,0.012997916
711.39,0.012870181
712.36,0.012749803
713.32,0.012634903
714.29,0.012519719
715.25,0.012402338
716.21,0.012292226
717.18,0.012172563
718.14,0.012015059
719.11,0.011836975
720.07,0.01167202
721.04,0.011543988
722,0.011451179
722.96,0.011379855
723.93,0.011322483
724.89,0.011289774
725.86,0.011286913
726.82,0.011297958
727.79,0.011307571
728.75,0.011299647
729.71,0.011294784
730.68,0.011335933
731.64,0.011410322
732.61,0.011491406
733.57,0.01155821
734.53,0.011612441
735.5,0.01164938
736.46,0.011662223
737.43,0.01168483
738.39,0.011747417
739.36,0.011861739
740.32,0.012010018
741.28,0.012155515
742.25,0.012224055
743.21,0.012211687
744.18,0.012188066
745.14,0.012198203
746.11,0.012236128
747.07,0.012223457
748.03,0.012130774
749,0.012028083
749.96,0.011929737
750.93,0.011854146
751.89,0.011812547
752.86,0.011813677
753.82,0.011852489
754.78,0.011891352
755.75,0.011892444
756.71,0.011840371
757.68,0.0117302
758.64,0.011582928
759.6,0.011448436
760.57,0.011361937
761.53,0.011264926
762.5,0.011157678
763.46,0.011049901
764.43,0.010943537
765.39,0.010836636
766.35,0.010729364
767.32,0.010588139
768.28,0.010444591
769.25,0.01033954
770.21,0.010274607
771.18,0.010228185
772.14,0.010176343
773.1,0.010117508
774.07,0.01005004
775.03,0.009994125
776,0.009975719
776.96,0.009992998
777.93,0.0100087
778.89,0.009959072
779.85,0.009799209
780.82,0.009625154
781.78,0.009471104
782.75,0.009354629
783.71,0.00927915
784.67,0.00924151
785.64,0.009235077
786.6,0.009223239
787.57,0.009157482
788.53,0.009026891
789.5,0.008873254
790.46,0.008762712
791.42,0.008753382
792.39,0.00880195
793.35,0.008803097
794.32,0.008749777
795.28,0.008662694
796.25,0.008559511
797.21,0.00845941
798.17,0.008358989
799.14,0.008224624
800.1,0.008068418
801.07,0.007929593
802.03,0.007825822
803,0.00774676
803.96,0.007660214
804.92,0.007550104
805.89,0.007385967
806.85,0.007187135
807.82,0.007002145
808.78,0.00685607
809.74,0.006731158
810.71,0.006559001
811.67,0.006286795
812.64,0.005997517
813.6,0.005732696
814.57,0.0054907
815.53,0.005266098
816.49,0.005046291
817.46,0.004838602
818.42,0.004635717
819.39,0.004415784
820.35,0.004213489
821.32,0.004039943
822.28,0.003858494
823.24,0.003619473
824.21,0.003318919
825.17,0.003039601
826.14,0.002809379
827.1,0.002621017
828.07,0.002461754
829.03,0.002313153
829.99,0.00214182
830.96,0.001904792
831.92,0.001637249
832.89,0.001413718
833.85,0.001240034
834.81,0.001099551
835.78,0.000979262
836.74,0.000890571
837.71,0.000826045
838.67,0.000740636
839.64,0.000647405
840.6,0.000563376
841.56,0.00048478
842.53,0.000390766
843.49,0.000269957
844.46,0.000148763
845.42,7.10E-05
846.39,3.68E-05
847.35,4.26E-05
848.31,7.71E-05
849.28,0.000125098
850.24,0.000171308
851.21,0.000219531
852.17,0.000289064
853.14,0.000383776
854.1,0.000480716
855.06,0.000570209
856.03,0.000657991
856.99,0.000775076
857.96,0.000911844
858.92,0.001037375
859.89,0.001159346
860.85,0.001279735
861.81,0.001394608
862.78,0.001505878
863.74,0.00162138
864.71,0.001758715
865.67,0.001890562
866.63,0.001997248
867.6,0.002116029
868.56,0.00228039
869.53,0.002472787
870.49,0.002632185
871.46,0.002750493
872.42,0.002821622
873.38,0.00282756
874.35,0.002815623
875.31,0.002831466
876.28,0.002909036
877.24,0.003046612
878.21,0.003246404
879.17,0.0034827
880.13,0.003683634
881.1,0.003828995
882.06,0.003926571
883.03,0.00399028
883.99,0.004021921
884.96,0.004110067
885.92,0.004289213
886.88,0.004480975
887.85,0.00464088
888.81,0.004744458
889.78,0.004785462
890.74,0.0047737
891.7,0.004772061
892.67,0.004839703
893.63,0.004962534
894.6,0.005097966
895.56,0.005209197
896.53,0.00528386
897.49,0.00534432
898.45,0.005456282
899.42,0.005619949
900.38,0.005790179
901.35,0.005952641
902.31,0.006076275
903.28,0.006158897
904.24,0.006235467
905.2,0.006361991
906.17,0.006503388
907.13,0.006609762
908.1,0.006699822
909.06,0.0068067
910.03,0.006943108
910.99,0.007081893
911.95,0.007175016
912.92,0.007199263
913.88,0.007263354
914.85,0.007417996
915.81,0.007615013
916.77,0.007795676
917.74,0.0079347
918.7,0.008054974
919.67,0.008137548
920.63,0.008196977
921.6,0.008288386
922.56,0.008426644
923.52,0.00860775
924.49,0.008804301
925.45,0.009003373
926.42,0.009205154
927.38,0.009373187
928.35,0.009488204
929.31,0.009566986
930.27,0.009665273
931.24,0.009826145
932.2,0.010036784
933.17,0.010213577
934.13,0.010319567
935.1,0.010449627
936.06,0.010610163
937.02,0.010801411
937.99,0.011008375
938.95,0.011209227
939.92,0.011369404
940.88,0.011473256
941.84,0.011577342
942.81,0.011718882
943.77,0.011913042
944.74,0.012151525
945.7,0.012410178
946.67,0.012654253
947.63,0.012850469
948.59,0.012998784
949.56,0.013094763
950.52,0.013137902
951.49,0.013183451
952.45,0.013268743
953.42,0.013389724
954.38,0.013530779
955.34,0.013727628
956.31,0.013962809
957.27,0.014218421
958.24,0.014485917
959.2,0.014753928
960.17,0.014991453
961.13,0.015171275
962.09,0.015297823
963.06,0.015429262
964.02,0.015585511
964.99,0.015782726
965.95,0.016018444
966.91,0.016250205
967.88,0.016437576
968.84,0.016629741
969.81,0.016858658
970.77,0.017013242
971.74,0.01712531
972.7,0.017273714
973.66,0.017495136
974.63,0.017792328
975.59,0.018140108
976.56,0.018498017
977.52,0.018778973
978.49,0.019010461
979.45,0.019260585
980.41,0.01954794
981.38,0.019829302
982.34,0.020067428
983.31,0.020329304
984.27,0.020658368
985.24,0.020916906
986.2,0.021131942
987.16,0.021414507
988.13,0.021806689
989.09,0.022257477
990.06,0.022672433
991.02,0.023034706
991.99,0.023402614
992.95,0.023820269
993.91,0.024261962
994.88,0.024683974
995.84,0.025050552
996.81,0.02534574
997.77,0.025594406
998.73,0.025853228
999.7,0.026244226
1000.66,0.026765103
1001.63,0.027285164
1002.59,0.027733006
1003.56,0.028127936
1004.52,0.028551753
1005.48,0.029042997
1006.45,0.02959707
1007.41,0.030175752
1008.38,0.030734768
1009.34,0.031249507
1010.31,0.031734863
1011.27,0.03223521
1012.23,0.032798946
1013.2,0.033428622
1014.16,0.034037789
1015.13,0.03456017
1016.09,0.03508329
1017.06,0.035677619
1018.02,0.036301678
1018.98,0.036893694
1019.95,0.037463167
1020.91,0.03809856
1021.88,0.038822772
1022.84,0.039531216
1023.81,0.040176397
1024.77,0.040783751
1025.73,0.041416949
1026.7,0.042110115
1027.66,0.04280674
1028.63,0.043412927
1029.59,0.043941912
1030.55,0.044523289
1031.52,0.045194444
1032.48,0.045883893
1033.45,0.04652375
1034.41,0.047115398
1035.38,0.047728547
1036.34,0.048367024
1037.3,0.049053636
1038.27,0.049826111
1039.23,0.050599924
1040.2,0.05128938
1041.16,0.051861043
1042.13,0.052347927
1043.09,0.052780676
1044.05,0.053134921
1045.02,0.053418485
1045.98,0.053729543
1046.95,0.054138701
1047.91,0.054667676
1048.88,0.05527578
1049.84,0.055869515
1050.8,0.056334433
1051.77,0.056610666
1052.73,0.056814272
1053.7,0.057033715
1054.66,0.057308133
1055.62,0.057635887
1056.59,0.057969999
1057.55,0.05824858
1058.52,0.058472831
1059.48,0.058719767
1060.45,0.058929634
1061.41,0.058966882
1062.37,0.058818938
1063.34,0.058628058
1064.3,0.058529961
1065.27,0.058539095
1066.23,0.05854003
1067.2,0.058551482
1068.16,0.058700036
1069.12,0.058884591
1070.09,0.058947277
1071.05,0.058829897
1072.02,0.058571713
1072.98,0.05825073
1073.95,0.057934459
1074.91,0.057650118
1075.87,0.057326346
1076.84,0.056979166
1077.8,0.056679475
1078.77,0.056472742
1079.73,0.056316786
1080.69,0.056139361
1081.66,0.05590239
1082.62,0.055656309
1083.59,0.055449213
1084.55,0.055240876
1085.52,0.055024776
1086.48,0.054768541
1087.44,0.054438202
1088.41,0.054037021
1089.37,0.053621094
1090.34,0.053267651
1091.3,0.052986155
1092.27,0.052720292
1093.23,0.052448106
1094.19,0.052161772
1095.16,0.051862111
1096.12,0.051545229
1097.09,0.051225484
1098.05,0.050899028
1099.02,0.050601716
1099.98,0.050451227
1100.94,0.050289682
1101.91,0.050014012
1102.87,0.049718425
1103.84,0.049494542
1104.8,0.049304137
1105.77,0.04901797
1106.73,0.048644742
1107.69,0.048297332
1108.66,0.048005834
1109.62,0.047772007
1110.59,0.047564945
1111.55,0.047346302
1112.51,0.047099918
1113.48,0.046858817
1114.44,0.046686626
1115.41,0.046509098
1116.37,0.046295432
1117.34,0.046152041
1118.3,0.046051298
1119.26,0.045922868
1120.23,0.045743035
1121.19,0.045548611
1122.16,0.045386816
1123.12,0.045289387
1124.09,0.045159467
1125.05,0.044884341
1126.01,0.044507202
1126.98,0.044170663
1127.94,0.043983336
1128.91,0.043949453
1129.87,0.043964284
1130.84,0.043916399
1131.8,0.043818617
1132.76,0.043706502
1133.73,0.043583529
1134.69,0.043437645
1135.66,0.043255955
1136.62,0.043029072
1137.58,0.042763154
1138.55,0.042474619
1139.51,0.042162712
1140.48,0.041894935
1141.44,0.041717733
1142.41,0.041598956
1143.37,0.041451524
1144.33,0.041273305
1145.3,0.041114341
1146.26,0.041013169
1147.23,0.040898172
1148.19,0.040675989
1149.16,0.040366807
1150.12,0.040008728
1151.08,0.039650087
1152.05,0.039321693
1153.01,0.039014601
1153.98,0.038721299
1154.94,0.038463538
1155.91,0.038262063
1156.87,0.038062485
1157.83,0.037800429
1158.8,0.037452878
1159.76,0.037030357
1160.73,0.03661579
1161.69,0.036287976
1162.65,0.036084592
1163.62,0.035952314
1164.58,0.035805318
1165.55,0.035589544
1166.51,0.0352757
1167.48,0.034918604
1168.44,0.034554572
1169.4,0.034172509
1170.37,0.033755512
1171.33,0.033317377
1172.3,0.032872578
1173.26,0.032449446
1174.23,0.032109285
1175.19,0.031837228
1176.15,0.031561654
1177.12,0.031251095
1178.08,0.030933983
1179.05,0.030624885
1180.01,0.030265445
1180.98,0.029789402
1181.94,0.029233513
1182.9,0.028755072
1183.87,0.028403906
1184.83,0.028072107
1185.8,0.027678553
1186.76,0.02723419
1187.72,0.026800549
1188.69,0.026418878
1189.65,0.026085981
1190.62,0.02576427
1191.58,0.025429874
1192.55,0.025106739
1193.51,0.024823841
1194.47,0.024507908
1195.44,0.024073553
1196.4,0.023564222
1197.37,0.02312786
1198.33,0.022832376
1199.3,0.022512705
1200.26,0.022097293
1201.22,0.021672083
1202.19,0.021246155
1203.15,0.020822083
1204.12,0.020430001
1205.08,0.020090575
1206.05,0.019807207
1207.01,0.019564867
1207.97,0.019322025
1208.94,0.019009952
1209.9,0.018613199
1210.87,0.018233723
1211.83,0.017919354
1212.79,0.017628314
1213.76,0.017318728
1214.72,0.01698731
1215.69,0.016676366
1216.65,0.016382736
1217.62,0.01609466
1218.58,0.015784665
1219.54,0.015458882
1220.51,0.015141626
1221.47,0.014862981
1222.44,0.014623293
1223.4,0.014407303
1224.37,0.014166638
1225.33,0.013855317
1226.29,0.013467154
1227.26,0.0131332
1228.22,0.012880884
1229.19,0.012643392
1230.15,0.012386995
1231.12,0.012096401
1232.08,0.011792865
1233.04,0.011528627
1234.01,0.011340671
1234.97,0.011186088
1235.94,0.011009678
1236.9,0.010811298
1237.87,0.01059401
1238.83,0.010366952
1239.79,0.010145633
1240.76,0.009960994
1241.72,0.009809992
1242.69,0.009658742
1243.65,0.009438823
1244.61,0.009084865
1245.58,0.008804876
1246.54,0.008661214
1247.51,0.008579597
1248.47,0.008510251
1249.44,0.008418954
1250.4,0.008293024
1251.36,0.008138673
1252.33,0.00799971
1253.29,0.007913696
1254.26,0.007858894
1255.22,0.007803983
1256.19,0.007720639
1257.15,0.007596183
1258.11,0.007424243
1259.08,0.007239315
1260.04,0.007095033
1261.01,0.00699786
1261.97,0.006966927
1262.94,0.007056213
1263.9,0.00712981
1264.86,0.007143296
1265.83,0.007102791
1266.79,0.006998609
1267.76,0.006868795
1268.72,0.00679282
1269.68,0.006818705
1270.65,0.006892507
1271.61,0.006918552
1272.58,0.006890252
1273.54,0.006858679
1274.51,0.006814254
1275.47,0.006804971
1276.43,0.006872706
1277.4,0.006982377
1278.36,0.007034315
1279.33,0.007002638
1280.29,0.006948351
1281.26,0.00694554
1282.22,0.006991144
1283.18,0.007065919
1284.15,0.007186168
1285.11,0.007345466
1286.08,0.007495349
1287.04,0.007580633
1288.01,0.007601086
1288.97,0.007611801
1289.93,0.00768114
1290.9,0.007822257
1291.86,0.007937534
1292.83,0.007984492
1293.79,0.008005408
1294.75,0.008039401
1295.72,0.008102928
1296.68,0.008189521
1297.65,0.008279534
1298.61,0.008369692
1299.58,0.008463351
1300.54,0.008566996
1301.5,0.008670828
1302.47,0.008771607
1303.43,0.008865914
1304.4,0.008953809
1305.36,0.009025309
1306.33,0.009100301
1307.29,0.009191925
1308.25,0.009303604
1309.22,0.009392316
1310.18,0.009524305
1311.15,0.009683163
1312.11,0.009795723
1313.08,0.009911815
1314.04,0.010034753
1315,0.010124568
1315.97,0.010194497
1316.93,0.010311328
1317.9,0.010525476
1318.86,0.010780221
1319.82,0.01095827
1320.79,0.011019192
1321.75,0.011016364
1322.72,0.010993343
1323.68,0.011010618
1324.65,0.011102122
1325.61,0.01125105
1326.57,0.011420503
1327.54,0.011556514
1328.5,0.011638632
1329.47,0.011693816
1330.43,0.011793099
1331.4,0.011912992
1332.36,0.012043199
1333.32,0.01219063
1334.29,0.01235542
1335.25,0.012506798
1336.22,0.012624415
1337.18,0.012701274
1338.15,0.012744133
1339.11,0.012742561
1340.07,0.012778603
1341.04,0.012869584
1342,0.012981194
1342.97,0.013082762
1343.93,0.013181043
1344.89,0.013306959
1345.86,0.013453801
1346.82,0.013590541
1347.79,0.013682732
1348.75,0.013740506
1349.72,0.013808797
1350.68,0.013922109
1351.64,0.014039041
1352.61,0.014118139
1353.57,0.014190399
1354.54,0.01426975
1355.5,0.014349161
1356.47,0.014435759
1357.43,0.014557194
1358.39,0.014668386
1359.36,0.01468225
1360.32,0.014716951
1361.29,0.014870535
1362.25,0.015041828
1363.22,0.015157467
1364.18,0.015220682
1365.14,0.015276981
1366.11,0.015358043
1367.07,0.015453173
1368.04,0.015530958
1369,0.015559552
1369.96,0.015598711
1370.93,0.015694414
1371.89,0.015807875
1372.86,0.015939233
1373.82,0.016056588
1374.79,0.016138834
1375.75,0.016192824
1376.71,0.016264583
1377.68,0.016393321
1378.64,0.016596817
1379.61,0.016854053
1380.57,0.017079625
1381.54,0.017213107
1382.5,0.01729677
1383.46,0.01736629
1384.43,0.017421758
1385.39,0.017487899
1386.36,0.017582863
1387.32,0.0176743
1388.29,0.017726579
1389.25,0.017764444
1390.21,0.017849046
1391.18,0.018013005
1392.14,0.018198695
1393.11,0.018370398
1394.07,0.018517091
1395.04,0.018613583
1396,0.018663171
1396.96,0.018709248
1397.93,0.018788016
1398.89,0.018877663
1399.86,0.018945807
1400.82,0.01901398
1401.78,0.01914395
1402.75,0.019365111
1403.71,0.019579301
1404.68,0.019742953
1405.64,0.019855738
1406.61,0.019936022
1407.57,0.020016275
1408.53,0.020129539
1409.5,0.020254076
1410.46,0.020342117
1411.43,0.020368075
1412.39,0.020386598
1413.36,0.020486055
1414.32,0.020670028
1415.28,0.020817527
1416.25,0.020854984
1417.21,0.020881269
1418.18,0.020974083
1419.14,0.021103865
1420.11,0.021204386
1421.07,0.021264256
1422.03,0.021331611
1423,0.021480729
1423.96,0.021648465
1424.93,0.021712684
1425.89,0.02173975
1426.85,0.021844883
1427.82,0.022006131
1428.78,0.022134023
1429.75,0.022195105
1430.71,0.02222255
1431.68,0.022276295
1432.64,0.022371134
1433.6,0.022458595
1434.57,0.022508868
1435.53,0.02257035
1436.5,0.022662028
1437.46,0.022761215
1438.43,0.02290583
1439.39,0.023073071
1440.35,0.023191633
1441.32,0.023261565
1442.28,0.023342729
1443.25,0.023484559
1444.21,0.023634028
1445.18,0.023689361
1446.14,0.023653729
1447.1,0.023644527
1448.07,0.02368476
1449.03,0.023717262
1450,0.023746138
1450.96,0.023797744
1451.92,0.023868404
1452.89,0.023969779
1453.85,0.024097887
1454.82,0.024233932
1455.78,0.024354766
1456.75,0.024460641
1457.71,0.024551258
1458.67,0.024653456
1459.64,0.024771289
1460.6,0.024820131
1461.57,0.024773148
1462.53,0.024748959
1463.5,0.024805665
1464.46,0.024877652
1465.42,0.024911202
1466.39,0.024921791
1467.35,0.024947696
1468.32,0.025027822
1469.28,0.025123374
1470.25,0.025188292
1471.21,0.025237607
1472.17,0.025290856
1473.14,0.025324957
1474.1,0.02533559
1475.07,0.025319151
1476.03,0.02530643
1476.99,0.025313089
1477.96,0.025347167
1478.92,0.025361654
1479.89,0.025356727
1480.85,0.025339884
1481.82,0.025280106
1482.78,0.02524357
1483.74,0.025293105
1484.71,0.025378145
1485.67,0.025427864
1486.64,0.025446323
1487.6,0.025464632
1488.57,0.025491005
1489.53,0.025513264
1490.49,0.025543416
1491.46,0.025593472
1492.42,0.025611878
1493.39,0.025618541
1494.35,0.025660638
1495.32,0.025659414
1496.28,0.025669855
1497.24,0.025715983
1498.21,0.025766324
1499.17,0.02582845
1500.14,0.025906715
1501.1,0.025988952
1502.06,0.026051342
1503.03,0.026098016
1503.99,0.026148577
1504.96,0.026207378
1505.92,0.026282046
1506.89,0.026324959
1507.85,0.026259676
1508.81,0.02613008
1509.78,0.026044511
1510.74,0.026042966
1511.71,0.026089723
1512.67,0.026116267
1513.64,0.026086624
1514.6,0.02604873
1515.56,0.026087315
1516.53,0.026134161
1517.49,0.026067844
1518.46,0.025916595
1519.42,0.025764905
1520.39,0.025600964
1521.35,0.025440576
1522.31,0.025296111
1523.28,0.025163735
1524.24,0.025112193
1525.21,0.025076945
1526.17,0.024927487
1527.14,0.024708662
1528.1,0.024599352
1529.06,0.024636751
1530.03,0.024694787
1530.99,0.024715923
1531.96,0.024663554
1532.92,0.024504497
1533.88,0.024320508
1534.85,0.024255274
1535.81,0.024325297
1536.78,0.024395505
1537.74,0.024399868
1538.71,0.024350833
1539.67,0.0242398
1540.63,0.024083155
1541.6,0.024004754
1542.56,0.024021101
1543.53,0.024045804
1544.49,0.024115903
1545.46,0.024177985
1546.42,0.024136365
1547.38,0.024061465
1548.35,0.024077871
1549.31,0.024214682
1550.28,0.024405848
1551.24,0.024580532
1552.21,0.024772321
1553.17,0.025085135
1554.13,0.025511107
1555.1,0.025729152
1556.06,0.025717475
1557.03,0.025605496
1557.99,0.025342479
1558.95,0.02507057
1559.92,0.024798309
1560.88,0.024584189
1561.85,0.024441269
1562.81,0.02435677
1563.78,0.024347973
1564.74,0.024435913
1565.7,0.024549222
1566.67,0.024599546
1567.63,0.024611842
1568.6,0.024666476
1569.56,0.024754879
1570.53,0.024843535
1571.49,0.024936461
1572.45,0.024970114
1573.42,0.024923303
1574.38,0.02490178
1575.35,0.024986548
1576.31,0.025126602
1577.28,0.025241494
1578.24,0.025300979
1579.2,0.025343476
1580.17,0.025411805
1581.13,0.025505676
1582.1,0.025578434
1583.06,0.025591243
1584.02,0.025646916
1584.99,0.025805619
1585.95,0.025938683
1586.92,0.026033482
1587.88,0.026055181
1588.85,0.025986714
1589.81,0.025909402
1590.77,0.025874968
1591.74,0.025896635
1592.7,0.025952736
1593.67,0.026034908
1594.63,0.026117052
1595.6,0.026208095
1596.56,0.026312153
1597.52,0.026385983
1598.49,0.026429693
1599.45,0.026495051
