RamanShift,SLS1
49.8496,-9.4362E-05
50.8138,-8.374E-05
51.7781,-7.50601E-05
52.7423,-6.82754E-05
53.7065,-5.98991E-05
54.6708,-4.59065E-05
55.635,-1.96371E-05
56.5992,4.74281E-06
57.5635,2.55845E-05
58.5277,4.25057E-05
59.4919,5.56359E-05
60.4562,6.00365E-05
61.4204,6.09096E-05
62.3846,5.57621E-05
63.3489,4.56109E-05
64.3131,3.63053E-05
65.2773,3.86529E-05
66.2416,4.65848E-05
67.2058,5.87543E-05
68.17,7.42231E-05
69.1343,9.35492E-05
70.0985,0.000113564
71.0627,0.000133125
72.027,0.000149425
72.9912,0.000159046
73.9554,0.00015992
74.9197,0.000162166
75.8839,0.000162395
76.8481,0.000160535
77.8124,0.000160332
78.7766,0.000163853
79.7408,0.000168848
80.7051,0.000176867
81.6693,0.000188273
82.6335,0.000198459
83.5978,0.000200201
84.562,0.000197041
85.5263,0.000191608
86.4905,0.000186835
87.4547,0.000189039
88.4189,0.000201604
89.3832,0.000220972
90.3474,0.000242654
91.3117,0.00025982
92.2759,0.000272494
93.2401,0.000277567
94.2044,0.000272921
95.1686,0.000260494
96.1328,0.000251669
97.097,0.0002423
98.0613,0.000235048
99.0255,0.000230041
99.9898,0.000226849
100.954,0.000226421
101.918,0.000236033
102.882,0.000250064
103.847,0.00026602
104.811,0.00028213
105.775,0.000295951
106.739,0.000301769
107.704,0.000299776
108.668,0.000291207
109.632,0.000279322
110.596,0.000262122
111.561,0.000251277
112.525,0.000250247
113.489,0.000258809
114.453,0.000267199
115.418,0.000273059
116.382,0.00027534
117.346,0.000274782
118.31,0.000272516
119.274,0.000268306
120.239,0.000264733
121.203,0.000267026
122.167,0.000276786
123.131,0.000293248
124.096,0.000303978
125.06,0.000301666
126.024,0.000289835
126.988,0.000273532
127.953,0.00026091
128.917,0.000256591
129.881,0.000254004
130.845,0.00025086
131.809,0.000246579
132.774,0.00024396
133.738,0.000247037
134.702,0.000251474
135.666,0.000256669
136.631,0.000261699
137.595,0.000261623
138.559,0.000257675
139.523,0.000252591
140.488,0.000246818
141.452,0.00024006
142.416,0.000232364
143.38,0.000220337
144.345,0.000203805
145.309,0.000184929
146.273,0.000167935
147.237,0.00016195
148.201,0.000164433
149.166,0.000172721
150.13,0.00018381
151.094,0.000193717
152.058,0.000203096
153.023,0.00020642
153.987,0.000202854
154.951,0.000193965
155.915,0.000185429
156.88,0.000176227
157.844,0.000166025
158.808,0.0001557
159.772,0.000146503
160.737,0.000140993
161.701,0.000139356
162.665,0.000136476
163.629,0.000129792
164.593,0.000118312
165.558,0.000106744
166.522,0.000102445
167.486,0.000104478
168.45,0.000110702
169.415,0.000117716
170.379,0.000118654
171.343,0.000110909
172.307,9.92424E-05
173.272,8.71014E-05
174.236,7.80052E-05
175.2,7.27916E-05
176.164,7.06594E-05
177.128,6.72388E-05
178.093,6.0485E-05
179.057,5.03322E-05
180.021,4.83659E-05
180.985,5.32073E-05
181.95,5.93023E-05
182.914,6.19087E-05
183.878,5.6585E-05
184.842,4.36002E-05
185.806,3.22326E-05
186.771,2.70169E-05
187.735,2.9326E-05
188.699,3.49839E-05
189.663,3.52531E-05
190.628,3.08081E-05
191.592,2.28989E-05
192.556,1.47978E-05
193.52,1.54557E-05
194.485,2.40369E-05
195.449,2.5371E-05
196.413,1.79226E-05
197.377,5.11771E-06
198.341,6.11436E-07
199.306,9.68216E-06
200.27,2.31494E-05
201.234,3.7364E-05
202.198,4.98817E-05
203.163,6.03099E-05
204.127,6.93147E-05
205.091,7.82793E-05
206.055,8.77936E-05
207.02,9.7631E-05
207.984,0.000104544
208.948,0.000106858
209.912,0.000110959
210.877,0.000119499
211.841,0.000132868
212.805,0.000144439
213.769,0.000150528
214.733,0.00015677
215.698,0.000166601
216.662,0.000182189
217.626,0.000199545
218.59,0.000210306
219.555,0.000216718
220.519,0.000222057
221.483,0.000230223
222.447,0.000242315
223.412,0.000254206
224.376,0.000262676
225.34,0.000267582
226.304,0.00027072
227.268,0.00028143
228.233,0.000298194
229.197,0.000319283
230.161,0.000345264
231.125,0.000377006
232.09,0.000408174
233.054,0.000431046
234.018,0.000446701
234.982,0.000455435
235.947,0.00045804
236.911,0.000462198
237.875,0.000475904
238.839,0.000495365
239.804,0.000518201
240.768,0.000542613
241.732,0.000571731
242.696,0.000606596
243.661,0.000644446
244.625,0.000682176
245.589,0.000716047
246.553,0.000739811
247.517,0.000762719
248.482,0.000783578
249.446,0.000800145
250.41,0.000811152
251.374,0.000830522
252.339,0.000862082
253.303,0.000900103
254.267,0.000941157
255.231,0.00098185
256.196,0.001014094
257.16,0.00103552
258.124,0.0010541
259.088,0.001076705
260.053,0.001109718
261.017,0.001158572
261.981,0.001212575
262.945,0.001258995
263.909,0.001293451
264.874,0.001315234
265.838,0.001326984
266.802,0.001345637
267.766,0.00137491
268.731,0.001411423
269.695,0.001450041
270.659,0.001487788
271.623,0.001535301
272.587,0.001590277
273.552,0.001646155
274.516,0.001695665
275.48,0.001733141
276.445,0.001753598
277.409,0.001764691
278.373,0.001781367
279.337,0.001818411
280.301,0.001887589
281.266,0.001970191
282.23,0.002052607
283.194,0.002125642
284.158,0.002181841
285.123,0.002215965
286.087,0.002256506
287.051,0.002312309
288.015,0.002377709
288.979,0.002445711
289.944,0.002509029
290.908,0.00256232
291.872,0.002610231
292.836,0.002657846
293.801,0.002711275
294.765,0.002777508
295.729,0.002859588
296.693,0.00294061
297.658,0.003015186
298.622,0.003084249
299.586,0.003154141
300.55,0.003227183
301.514,0.003294631
302.479,0.00335979
303.443,0.003421041
304.407,0.003473955
305.372,0.003508978
306.336,0.003553787
307.3,0.003620619
308.264,0.003704648
309.228,0.003794756
310.193,0.003884762
311.157,0.003977154
312.121,0.004063086
313.085,0.004141622
314.05,0.004215799
315.014,0.004297316
315.978,0.004384933
316.942,0.004462797
317.906,0.004528409
318.871,0.004581917
319.835,0.004623954
320.799,0.004663891
321.763,0.004720095
322.728,0.004792982
323.692,0.004877205
324.656,0.004961854
325.62,0.005042222
326.585,0.005116124
327.549,0.00518088
328.513,0.005238843
329.477,0.005296637
330.442,0.005367464
331.406,0.005452289
332.37,0.005545608
333.334,0.005640344
334.298,0.005727732
335.263,0.005797924
336.227,0.00586585
337.191,0.005945802
338.155,0.006038592
339.12,0.006141571
340.084,0.006253771
341.048,0.006365251
342.012,0.006465255
342.976,0.006549076
343.941,0.006614382
344.905,0.006661464
345.869,0.006719803
346.834,0.006809252
347.798,0.00692019
348.762,0.007038094
349.726,0.007145805
350.69,0.007240596
351.655,0.007336994
352.619,0.007432553
353.583,0.007524825
354.547,0.007613656
355.512,0.007713645
356.476,0.007823916
357.44,0.007932162
358.404,0.008037292
359.368,0.008139878
360.333,0.008237669
361.297,0.008308406
362.261,0.008363138
363.225,0.008418518
364.19,0.00848612
365.154,0.008568192
366.118,0.008661651
367.082,0.008755242
368.047,0.008841922
369.011,0.008920376
369.975,0.008995156
370.939,0.009081227
371.904,0.009170625
372.868,0.009253093
373.832,0.009334158
374.796,0.009422132
375.76,0.009513624
376.725,0.009588921
377.689,0.009669668
378.653,0.009757046
379.617,0.00984682
380.582,0.009930534
381.546,0.010014881
382.51,0.010091752
383.474,0.010158359
384.439,0.01022308
385.403,0.010303338
386.367,0.010425869
387.331,0.010571101
388.296,0.010711585
389.26,0.010830731
390.224,0.010919648
391.188,0.010980796
392.152,0.011051641
393.117,0.01115009
394.081,0.011263885
395.045,0.011379691
396.009,0.011490061
396.974,0.01159846
397.938,0.011702059
398.902,0.011791419
399.866,0.011863522
400.83,0.011922441
401.795,0.011992579
402.759,0.012094587
403.723,0.012214614
404.688,0.012335432
405.652,0.012446641
406.616,0.012560404
407.58,0.012718284
408.544,0.012884481
409.509,0.013025524
410.473,0.013123203
411.437,0.013178214
412.401,0.013225215
413.366,0.013305447
414.33,0.013413454
415.294,0.01353139
416.258,0.013639888
417.223,0.013736128
418.187,0.013849344
419.151,0.013989706
420.115,0.014144539
421.079,0.014293641
422.044,0.014412798
423.008,0.014491109
423.972,0.014558883
424.936,0.014634056
425.901,0.014732132
426.865,0.01486302
427.829,0.015021624
428.793,0.015161888
429.757,0.01527909
430.722,0.015383769
431.686,0.015486954
432.65,0.015593631
433.615,0.01572418
434.579,0.015875129
435.543,0.016029443
436.507,0.016172479
437.471,0.016294517
438.436,0.016395857
439.4,0.01649041
440.364,0.016584953
441.328,0.016679258
442.293,0.016773448
443.257,0.016870878
444.221,0.016998054
445.185,0.017144713
446.149,0.017296593
447.114,0.017447847
448.078,0.017597669
449.042,0.017737282
450.006,0.017842687
450.971,0.017936758
451.935,0.018037917
452.899,0.018154961
453.863,0.018279551
454.828,0.018379517
455.792,0.018444754
456.756,0.01847721
457.72,0.018490839
458.685,0.018508571
459.649,0.018570052
460.613,0.018681506
461.577,0.018811691
462.541,0.018936423
463.506,0.019043147
464.47,0.019137931
465.434,0.019234572
466.398,0.019315005
467.363,0.019374454
468.327,0.019406214
469.291,0.019406612
470.255,0.019384118
471.22,0.019388112
472.184,0.019429787
473.148,0.019495687
474.112,0.019566703
475.077,0.019624563
476.041,0.019666969
477.005,0.019708495
477.969,0.019751721
478.933,0.019798751
479.898,0.019853366
480.862,0.019923757
481.826,0.020017026
482.79,0.020106124
483.755,0.020169533
484.719,0.020200298
485.683,0.020205205
486.647,0.020194817
487.611,0.020184615
488.576,0.020174742
489.54,0.020157596
490.504,0.020127216
491.469,0.020085287
492.433,0.020056711
493.397,0.020056981
494.361,0.020088335
495.325,0.0201406
496.29,0.0201946
497.254,0.020224015
498.218,0.020228706
499.182,0.020233162
500.147,0.020258633
501.111,0.02031869
502.075,0.020413657
503.039,0.020502599
504.003,0.020579736
504.968,0.020653472
505.932,0.020721781
506.896,0.020787203
507.86,0.020866371
508.825,0.020994202
509.789,0.021132014
510.753,0.021255947
511.717,0.021366624
512.682,0.021480865
513.646,0.021621835
514.61,0.021776244
515.574,0.021930521
516.539,0.022094439
517.503,0.022275193
518.467,0.022473427
519.431,0.022662587
520.395,0.022828949
521.36,0.022984678
522.324,0.023151093
523.288,0.023353481
524.252,0.023614576
525.217,0.023905139
526.181,0.024164622
527.145,0.024407023
528.109,0.024663202
529.074,0.024968203
530.038,0.025355304
531.002,0.025814012
531.966,0.026280423
532.931,0.026723279
533.895,0.027122629
534.859,0.027475013
535.823,0.027789805
536.788,0.028087355
537.752,0.02838429
538.716,0.028689085
539.68,0.028998159
540.644,0.02929796
541.609,0.029612543
542.573,0.02998297
543.537,0.030391968
544.501,0.030799985
545.466,0.031168764
546.43,0.031480415
547.394,0.031735805
548.358,0.031937843
549.322,0.032068776
550.287,0.032137849
551.251,0.032176364
552.215,0.032237389
553.179,0.032345001
554.144,0.032503053
555.108,0.032701653
556.072,0.032896447
557.036,0.03303104
558.001,0.033070131
558.965,0.033088651
559.929,0.033103224
560.893,0.033080483
561.857,0.032994931
562.822,0.032838864
563.786,0.032622152
564.75,0.032415822
565.714,0.032266094
566.679,0.032162443
567.643,0.032071897
568.607,0.031954899
569.571,0.031804959
570.536,0.031654131
571.5,0.031500893
572.464,0.031338842
573.428,0.031163993
574.393,0.030975169
575.357,0.030783028
576.321,0.030608589
577.285,0.030438577
578.25,0.030231415
579.214,0.029964229
580.178,0.029659363
581.142,0.029416055
582.106,0.029268737
583.071,0.029168694
584.035,0.029064197
584.999,0.028917881
585.963,0.028720189
586.928,0.028482034
587.892,0.028224768
588.856,0.027987497
589.82,0.02780475
590.784,0.027678428
591.749,0.027557703
592.713,0.02734077
593.677,0.02709523
594.641,0.026863352
595.606,0.026659577
596.57,0.026477707
597.534,0.026297095
598.498,0.026058553
599.463,0.025759865
600.427,0.025438341
601.391,0.025124651
602.355,0.024830406
603.319,0.024542796
604.284,0.024267382
605.248,0.024034691
606.212,0.023818433
607.177,0.023576079
608.141,0.023271133
609.105,0.022897865
610.069,0.022536128
611.033,0.022225813
611.998,0.021953761
612.962,0.021693936
613.926,0.021427776
614.89,0.021160834
615.855,0.020916818
616.819,0.020676864
617.783,0.020437655
618.747,0.020201663
619.712,0.019975302
620.676,0.019758787
621.64,0.019515887
622.604,0.019235813
623.568,0.018941088
624.533,0.018655411
625.497,0.018401834
626.461,0.018185601
627.425,0.018029385
628.39,0.017891476
629.354,0.017713176
630.318,0.017486481
631.282,0.017246129
632.246,0.017051128
633.211,0.016942498
634.175,0.016845753
635.139,0.016710666
636.104,0.016524413
637.068,0.016307207
638.032,0.016103922
638.996,0.015957792
639.96,0.015844172
640.925,0.015729541
641.889,0.015593546
642.853,0.01542834
643.817,0.015237707
644.782,0.015017578
645.746,0.014796096
646.71,0.014607551
647.674,0.014471161
648.639,0.01437966
649.603,0.014292176
650.567,0.014136096
651.531,0.013940354
652.495,0.013733732
653.46,0.013516198
654.424,0.013290918
655.388,0.013079598
656.352,0.012928367
657.317,0.012810724
658.281,0.012672988
659.245,0.012516397
660.209,0.012356091
661.173,0.012199319
662.138,0.01200867
663.102,0.011801675
664.066,0.011625382
665.03,0.011465662
665.995,0.011301057
666.959,0.011116716
667.923,0.010919308
668.887,0.010725768
669.852,0.010539127
670.816,0.010355575
671.78,0.010176092
672.744,0.009997245
673.709,0.009813436
674.673,0.009601766
675.637,0.009375915
676.601,0.009166699
677.566,0.008982754
678.53,0.008816624
679.494,0.008646135
680.458,0.008451307
681.422,0.008249049
682.387,0.008054853
683.351,0.007872984
684.315,0.007703368
685.279,0.007540861
686.244,0.007362718
687.208,0.007163035
688.172,0.006972364
689.136,0.006807248
690.101,0.006668511
691.065,0.006534916
692.029,0.006369317
692.993,0.006154508
693.957,0.005938983
694.922,0.005747936
695.886,0.00558295
696.85,0.005432709
697.814,0.005290347
698.779,0.005142079
699.743,0.004959257
700.707,0.004758896
701.671,0.00456424
702.636,0.004389511
703.6,0.004236405
704.564,0.004119499
705.528,0.004033645
706.492,0.003941024
707.457,0.003831019
708.421,0.003717189
709.385,0.003622915
710.349,0.003550874
711.314,0.003450798
712.278,0.003316972
713.242,0.003183132
714.206,0.003075874
715.171,0.002997414
716.135,0.002912375
717.099,0.002786384
718.063,0.002682312
719.028,0.002621047
719.992,0.002582749
720.956,0.00254043
721.92,0.002483006
722.885,0.002429969
723.849,0.002389084
724.813,0.002349054
725.777,0.002307812
726.741,0.00226773
727.706,0.002229943
728.67,0.002188734
729.634,0.002145725
730.598,0.002107171
731.563,0.002069294
732.527,0.002044366
733.491,0.002043774
734.455,0.002061717
735.419,0.002061745
736.384,0.002047989
737.348,0.002041961
738.312,0.002053456
739.276,0.002087077
740.241,0.002141789
741.205,0.002206497
742.169,0.00226947
743.133,0.00234462
744.098,0.002433968
745.062,0.002519551
746.026,0.002585012
746.99,0.002637109
747.955,0.002708211
748.919,0.002762297
749.883,0.002818014
750.847,0.002884611
751.812,0.002958254
752.776,0.003034328
753.74,0.003152428
754.704,0.003307696
755.668,0.003435436
756.633,0.003537913
757.597,0.003637025
758.561,0.003751576
759.525,0.003877361
760.49,0.004004209
761.454,0.004147426
762.418,0.004299786
763.382,0.004452657
764.346,0.004604061
765.311,0.00476036
766.275,0.00492199
767.239,0.005055371
768.203,0.005165956
769.168,0.005272005
770.132,0.00538181
771.096,0.005497585
772.06,0.005621408
773.025,0.005767894
773.989,0.005926605
774.953,0.006082775
775.917,0.006225239
776.881,0.006341134
777.846,0.006418251
778.81,0.006451357
779.774,0.006478244
780.739,0.006545022
781.703,0.006632569
782.667,0.006713417
783.631,0.006765463
784.595,0.006780564
785.56,0.006760178
786.524,0.00675286
787.488,0.006784253
788.452,0.006844083
789.417,0.006908219
790.381,0.006952615
791.345,0.006966036
792.309,0.006958821
793.274,0.006943172
794.238,0.006916049
795.202,0.006868669
796.166,0.006800261
797.13,0.006720599
798.095,0.006646347
799.059,0.006554663
800.023,0.006454287
800.987,0.006383902
801.952,0.006333418
802.916,0.006280933
803.88,0.006216883
804.844,0.006151812
805.808,0.006057378
806.773,0.005932244
807.737,0.005799609
808.701,0.005679732
809.665,0.005570591
810.63,0.005440637
811.594,0.005246689
812.558,0.005025011
813.522,0.004816527
814.487,0.004612378
815.451,0.00441492
816.415,0.004241347
817.379,0.004114005
818.344,0.003973534
819.308,0.003825057
820.272,0.003685197
821.236,0.0035328
822.201,0.003354598
823.165,0.003156431
824.129,0.0029576
825.093,0.002736583
826.057,0.002482929
827.022,0.002221257
827.986,0.001982153
828.95,0.001785436
829.914,0.001631123
830.879,0.001488997
831.843,0.001325025
832.807,0.001180444
833.771,0.00108382
834.736,0.000996718
835.7,0.000866108
836.664,0.00068157
837.628,0.000543978
838.592,0.000503286
839.557,0.00046825
840.521,0.000407932
841.485,0.000321901
842.449,0.000224328
843.414,0.000129058
844.378,5.77711E-05
845.342,2.93796E-05
846.306,2.40456E-05
847.271,2.03681E-05
848.235,1.05455E-05
849.199,4.91337E-06
850.163,2.90241E-05
851.128,0.000124643
852.092,0.000207597
853.056,0.000225577
854.02,0.000228679
854.984,0.000262496
855.949,0.000338537
856.913,0.000433702
857.877,0.000556567
858.841,0.000691023
859.806,0.000802019
860.77,0.000892158
861.734,0.000984963
862.698,0.001102958
863.663,0.001247152
864.627,0.001394056
865.591,0.001560865
866.555,0.001744151
867.519,0.001891814
868.484,0.002008224
869.448,0.002146761
870.412,0.002357796
871.376,0.002557361
872.341,0.002736878
873.305,0.002949661
874.269,0.003175596
875.233,0.003399599
876.198,0.003631412
877.162,0.003894421
878.126,0.004156828
879.09,0.004371891
880.054,0.004572584
881.019,0.00479431
881.983,0.005045057
882.947,0.005307161
883.911,0.005558566
884.876,0.005801593
885.84,0.00606611
886.804,0.006365858
887.768,0.0066822
888.733,0.006989231
889.697,0.007279554
890.661,0.007582229
891.625,0.007926537
892.59,0.00829028
893.554,0.008654878
894.518,0.009025653
895.482,0.00940901
896.447,0.009809434
897.411,0.010229123
898.375,0.010664385
899.339,0.011101163
900.303,0.011517803
901.268,0.011915557
902.232,0.012313892
903.196,0.012714543
904.16,0.013102623
905.125,0.013476312
906.089,0.013865191
907.053,0.014285735
908.017,0.014748697
908.981,0.015246804
909.946,0.015757387
910.91,0.016255506
911.874,0.016729638
912.838,0.017219169
913.803,0.017760072
914.767,0.018319925
915.731,0.018868342
916.695,0.019406276
917.66,0.019952782
918.624,0.020504895
919.588,0.021021625
920.552,0.021524536
921.516,0.02203181
922.481,0.022541548
923.445,0.023075292
924.409,0.023669403
925.374,0.024338582
926.338,0.025041836
927.302,0.025719079
928.266,0.026333187
929.23,0.026874886
930.195,0.027373968
931.159,0.027878755
932.123,0.028424346
933.087,0.028980734
934.052,0.029496872
935.016,0.030025885
935.98,0.030551629
936.944,0.031067945
937.909,0.031587532
938.873,0.032114884
939.837,0.032601929
940.801,0.033051692
941.765,0.033554772
942.73,0.034054503
943.694,0.034500988
944.658,0.03489206
945.622,0.035249555
946.587,0.035592457
947.551,0.035934079
948.515,0.03630384
949.479,0.036636764
950.443,0.036901231
951.408,0.037137227
952.372,0.037387222
953.336,0.037660432
954.301,0.037942594
955.265,0.038201966
956.229,0.038360646
957.193,0.038443489
958.157,0.038530103
959.122,0.038677897
960.086,0.038887818
961.05,0.039103277
962.014,0.039250341
962.979,0.039320599
963.943,0.039372184
964.907,0.039416799
965.871,0.039437328
966.836,0.039442597
967.8,0.039464231
968.764,0.039481058
969.728,0.039505474
970.692,0.039619137
971.657,0.039767461
972.621,0.039887335
973.585,0.039966433
974.549,0.040030419
975.514,0.040105141
976.478,0.040197839
977.442,0.040324308
978.406,0.0404627
979.37,0.040564873
980.335,0.040592773
981.299,0.040561773
982.263,0.040544257
983.227,0.040622811
984.192,0.04074198
985.156,0.040798172
986.12,0.040892223
987.084,0.041049876
988.049,0.041212099
989.013,0.04132238
989.977,0.041400967
990.941,0.041509833
991.906,0.041665323
992.87,0.041821245
993.834,0.041967196
994.798,0.042124934
995.763,0.04230782
996.727,0.042486491
997.691,0.042585494
998.655,0.042591652
999.619,0.042662858
1000.58,0.042815328
1001.55,0.043029966
1002.51,0.043273172
1003.48,0.043485862
1004.44,0.043620977
1005.4,0.043745265
1006.37,0.04396721
1007.33,0.044193371
1008.3,0.044367707
1009.26,0.044511985
1010.23,0.044679714
1011.19,0.044908036
1012.15,0.045190737
1013.12,0.04546976
1014.08,0.045705209
1015.05,0.045983982
1016.01,0.046334935
1016.98,0.046695102
1017.94,0.047000004
1018.9,0.047237466
1019.87,0.047452153
1020.83,0.047729123
1021.8,0.048123709
1022.76,0.048563224
1023.73,0.04900427
1024.69,0.049397951
1025.65,0.049728267
1026.62,0.050027843
1027.58,0.050369689
1028.55,0.050798651
1029.51,0.051245065
1030.47,0.051636561
1031.44,0.051975591
1032.4,0.052319588
1033.37,0.052725895
1034.33,0.053208481
1035.3,0.053725766
1036.26,0.05425856
1037.22,0.054844284
1038.19,0.055399001
1039.15,0.055881742
1040.12,0.056334973
1041.08,0.05680995
1042.05,0.057310616
1043.01,0.057788261
1043.97,0.058231683
1044.94,0.058732876
1045.9,0.059322033
1046.87,0.059951208
1047.83,0.060555433
1048.8,0.061117799
1049.76,0.061673736
1050.72,0.062271806
1051.69,0.06293354
1052.65,0.063656268
1053.62,0.064383595
1054.58,0.065101106
1055.55,0.065844408
1056.51,0.066611317
1057.47,0.067354221
1058.44,0.068032019
1059.4,0.068697226
1060.37,0.069407258
1061.33,0.070118174
1062.3,0.070808193
1063.26,0.071511813
1064.22,0.072294377
1065.19,0.073192899
1066.15,0.074185047
1067.12,0.075127653
1068.08,0.07594489
1069.04,0.076742059
1070.01,0.077606466
1070.97,0.078526181
1071.94,0.079414001
1072.9,0.080184943
1073.87,0.080845435
1074.83,0.08149711
1075.79,0.082171554
1076.76,0.082831793
1077.72,0.083485046
1078.69,0.084155501
1079.65,0.084848582
1080.62,0.085546663
1081.58,0.086221144
1082.54,0.086964259
1083.51,0.087834403
1084.47,0.088681701
1085.44,0.089359251
1086.4,0.089779104
1087.37,0.089983139
1088.33,0.090115758
1089.29,0.090328779
1090.26,0.090614168
1091.22,0.090831924
1092.19,0.090957964
1093.15,0.091001171
1094.11,0.090950278
1095.08,0.09079758
1096.04,0.090540136
1097.01,0.090198328
1097.97,0.089819165
1098.93,0.089502475
1099.9,0.089233486
1100.86,0.088935708
1101.83,0.088508723
1102.79,0.08786678
1103.76,0.087025096
1104.72,0.086096651
1105.68,0.085208231
1106.65,0.084386381
1107.61,0.083529726
1108.58,0.082647446
1109.54,0.081764291
1110.51,0.080860542
1111.47,0.079897622
1112.43,0.078834926
1113.4,0.07766193
1114.36,0.076440136
1115.33,0.07535493
1116.29,0.074334557
1117.26,0.073323027
1118.22,0.07236156
1119.18,0.071388411
1120.15,0.070317668
1121.11,0.069142677
1122.08,0.067964006
1123.04,0.066845126
1124.01,0.065777051
1124.97,0.064729227
1125.93,0.063656737
1126.9,0.062504404
1127.86,0.061256009
1128.83,0.059976859
1129.79,0.058800078
1130.76,0.057804527
1131.72,0.056932362
1132.68,0.056067513
1133.65,0.055149096
1134.61,0.054144883
1135.58,0.053109669
1136.54,0.052108188
1137.51,0.051135916
1138.47,0.050151728
1139.43,0.049196286
1140.4,0.048353581
1141.36,0.047558528
1142.33,0.046725776
1143.29,0.045867662
1144.25,0.045057126
1145.22,0.044347197
1146.18,0.043693467
1147.15,0.042990595
1148.11,0.042167992
1149.08,0.041326044
1150.04,0.040533117
1151,0.039775187
1151.97,0.039034787
1152.93,0.038316252
1153.9,0.037631096
1154.86,0.036964898
1155.83,0.036287012
1156.79,0.035597884
1157.75,0.034902041
1158.72,0.034192839
1159.68,0.033477264
1160.65,0.032769824
1161.61,0.032095314
1162.58,0.031474619
1163.54,0.03091451
1164.5,0.030383697
1165.47,0.029795591
1166.43,0.029157197
1167.4,0.028513522
1168.36,0.027901404
1169.32,0.027317856
1170.29,0.026739098
1171.25,0.026150171
1172.22,0.025575556
1173.18,0.02507081
1174.15,0.024615136
1175.11,0.024110544
1176.07,0.023533789
1177.04,0.022941661
1178,0.022408973
1178.97,0.021950177
1179.93,0.021509408
1180.89,0.021030764
1181.86,0.020545877
1182.82,0.020036674
1183.79,0.019471372
1184.75,0.018894816
1185.72,0.018364079
1186.68,0.017903587
1187.64,0.017497115
1188.61,0.017101339
1189.57,0.016670772
1190.54,0.016191091
1191.5,0.015712407
1192.47,0.015273877
1193.43,0.014847089
1194.39,0.014387947
1195.36,0.013933755
1196.32,0.013557617
1197.29,0.013253748
1198.25,0.012877674
1199.22,0.012407307
1200.18,0.011984053
1201.14,0.011600649
1202.11,0.011227567
1203.07,0.010864649
1204.04,0.010512057
1205,0.010154677
1205.96,0.009783575
1206.93,0.009419474
1207.89,0.009103669
1208.86,0.008837688
1209.82,0.008569706
1210.79,0.008291888
1211.75,0.008009659
1212.71,0.007715536
1213.68,0.007397146
1214.64,0.007061365
1215.61,0.006734005
1216.57,0.00640288
1217.54,0.006060739
1218.5,0.005766633
1219.46,0.005525459
1220.43,0.005304858
1221.39,0.005071194
1222.36,0.004818955
1223.32,0.004574262
1224.29,0.004379196
1225.25,0.004247359
1226.21,0.00409583
1227.18,0.003853465
1228.14,0.003627359
1229.11,0.003472769
1230.07,0.003344573
1231.04,0.003198677
1232,0.003034425
1232.96,0.002863825
1233.93,0.002676284
1234.89,0.002488581
1235.86,0.002350167
1236.82,0.002250344
1237.79,0.00214898
1238.75,0.00202662
1239.71,0.001895137
1240.68,0.001767609
1241.64,0.001643785
1242.61,0.001533476
1243.57,0.001486872
1244.54,0.001424327
1245.5,0.00129486
1246.46,0.001188336
1247.43,0.001132114
1248.39,0.001091569
1249.36,0.001035886
1250.32,0.000966581
1251.28,0.0009047
1252.25,0.000864708
1253.21,0.000842566
1254.18,0.000823093
1255.14,0.00079437
1256.11,0.000741808
1257.07,0.00066366
1258.03,0.000583559
1259,0.000517605
1259.96,0.000464413
1260.93,0.000434109
1261.89,0.000451486
1262.86,0.00046658
1263.82,0.000448871
1264.78,0.000423546
1265.75,0.000405766
1266.71,0.000388765
1267.68,0.000357156
1268.64,0.000314531
1269.61,0.000294622
1270.57,0.000334821
1271.53,0.00041294
1272.5,0.000421339
1273.46,0.000349752
1274.43,0.000270379
1275.39,0.000213133
1276.35,0.000176914
1277.32,0.000143051
1278.28,9.69052E-05
1279.25,4.40801E-05
1280.21,2.64062E-06
1281.18,-3.02886E-06
1282.14,6.76011E-05
1283.1,0.00014669
1284.07,0.000147108
1285.03,7.76391E-05
1286,1.81716E-05
1286.96,2.00317E-05
1287.92,5.19901E-05
1288.89,4.23186E-05
1289.85,-2.4842E-05
1290.82,-6.0279E-05
1291.78,-1.94439E-05
1292.75,2.51386E-05
1293.71,6.53469E-05
1294.67,9.70395E-05
1295.64,9.57904E-05
1296.6,6.37988E-05
1297.57,4.81238E-05
1298.53,8.65274E-05
1299.5,0.00013606
1300.46,0.000112051
1301.42,3.39316E-05
1302.39,-8.53246E-06
1303.35,-3.1439E-06
1304.32,4.14013E-06
1305.28,9.58233E-06
1306.25,3.90577E-05
1307.21,8.37362E-05
1308.17,8.84531E-05
1309.14,4.26528E-05
1310.1,-2.21275E-05
1311.07,-5.76198E-05
1312.03,-2.96332E-05
1312.99,4.59515E-05
1313.96,0.000130846
1314.92,0.000183814
1315.89,0.000184269
1316.85,0.000143514
1317.82,9.50954E-05
1318.78,6.18106E-05
1319.74,2.70842E-05
1320.71,1.65194E-05
1321.67,5.10011E-05
1322.64,7.79911E-05
1323.6,8.31871E-05
1324.57,8.8727E-05
1325.53,0.000114839
1326.49,0.000156647
1327.46,0.000200862
1328.42,0.000252792
1329.39,0.000279062
1330.35,0.000214495
1331.32,0.000118316
1332.28,5.97872E-05
1333.24,5.40872E-05
1334.21,8.80591E-05
1335.17,0.000139403
1336.14,0.000180839
1337.1,0.000189801
1338.07,0.000166016
1339.03,0.00012743
1339.99,0.000109052
1340.96,0.00014579
1341.92,0.000203784
1342.89,0.000243014
1343.85,0.000270489
1344.82,0.000285509
1345.78,0.000265081
1346.74,0.00020488
1347.71,0.000151894
1348.67,0.000160681
1349.64,0.000211532
1350.6,0.000213516
1351.57,0.000169872
1352.53,0.000165613
1353.49,0.000228289
1354.46,0.000279808
1355.42,0.00026061
1356.39,0.000195027
1357.35,0.000144874
1358.31,0.000129195
1359.28,0.000135916
1360.24,0.000166032
1361.21,0.000206415
1362.17,0.000230626
1363.13,0.000245955
1364.1,0.000281684
1365.06,0.000338852
1366.03,0.000372855
1366.99,0.000340778
1367.96,0.000260117
1368.92,0.000201177
1369.88,0.000169931
1370.85,0.000146288
1371.81,0.000115946
1372.78,0.000100387
1373.74,0.000134142
1374.71,0.000188103
1375.67,0.000217234
1376.63,0.000218054
1377.6,0.000226101
1378.56,0.000265703
1379.53,0.000322181
1380.49,0.000366115
1381.46,0.00038779
1382.42,0.000406855
1383.38,0.00043484
1384.35,0.000427865
1385.31,0.000355848
1386.28,0.000286364
1387.24,0.000299673
1388.2,0.000379628
1389.17,0.000428495
1390.13,0.000400263
1391.1,0.000355643
1392.06,0.000359833
1393.03,0.000397682
1393.99,0.000445339
1394.95,0.000485733
1395.92,0.000492337
1396.88,0.000455712
1397.85,0.000419254
1398.81,0.000448005
1399.78,0.0005374
1400.74,0.000574633
1401.7,0.000516796
1402.67,0.000434653
1403.63,0.000359555
1404.6,0.000308539
1405.56,0.00029364
1406.53,0.000326047
1407.49,0.00041235
1408.45,0.000524755
1409.42,0.000604121
1410.38,0.000609553
1411.35,0.000573225
1412.31,0.000580117
1413.28,0.000643567
1414.24,0.000641368
1415.2,0.000544605
1416.17,0.000478972
1417.13,0.000488505
1418.1,0.000531234
1419.06,0.000553033
1420.03,0.000547984
1420.99,0.000554108
1421.95,0.000596393
1422.92,0.000644816
1423.88,0.000673368
1424.85,0.000684798
1425.81,0.000668669
1426.78,0.000627018
1427.74,0.000618554
1428.7,0.00066828
1429.67,0.000695254
1430.63,0.000642407
1431.6,0.000554201
1432.56,0.000476373
1433.52,0.000373124
1434.49,0.000334056
1435.45,0.000426499
1436.42,0.00052178
1437.38,0.000607695
1438.35,0.000672733
1439.31,0.000665385
1440.27,0.000593292
1441.24,0.000529288
1442.2,0.000528631
1443.17,0.000581619
1444.13,0.000647185
1445.1,0.000697122
1446.06,0.000684716
1447.02,0.000608106
1447.99,0.000558289
1448.95,0.000545505
1449.92,0.000542138
1450.88,0.000543886
1451.85,0.000545035
1452.81,0.00053203
1453.77,0.000513449
1454.74,0.000519892
1455.7,0.000559614
1456.67,0.000598325
1457.63,0.000608494
1458.59,0.000611938
1459.56,0.000641685
1460.52,0.000727283
1461.49,0.000763275
1462.45,0.000671913
1463.42,0.000544262
1464.38,0.000493845
1465.34,0.000518779
1466.31,0.000536057
1467.27,0.000510665
1468.24,0.00050645
1469.2,0.000578623
1470.16,0.00066287
1471.13,0.000669983
1472.09,0.000626701
1473.06,0.00059889
1474.02,0.000594533
1474.99,0.00059681
1475.95,0.000619275
1476.91,0.000658925
1477.88,0.000673067
1478.84,0.000639075
1479.81,0.000584929
1480.77,0.000525934
1481.74,0.000508197
1482.7,0.000584967
1483.66,0.000684561
1484.63,0.000731664
1485.59,0.000722708
1486.56,0.000688804
1487.52,0.000657583
1488.49,0.000661491
1489.45,0.000722075
1490.41,0.000795815
1491.38,0.000791291
1492.34,0.000723189
1493.31,0.000713551
1494.27,0.000752114
1495.23,0.00077967
1496.2,0.000807781
1497.16,0.000813841
1498.13,0.000790174
1499.09,0.000773788
1500.06,0.000790545
1501.02,0.000828363
1501.98,0.000863506
1502.95,0.000888595
1503.91,0.000903187
1504.88,0.000910081
1505.84,0.000932993
1506.81,0.000952329
1507.77,0.000958454
1508.73,0.000945327
1509.7,0.000903676
1510.66,0.000840479
1511.63,0.000774582
1512.59,0.000725562
1513.56,0.000685893
1514.52,0.000640775
1515.48,0.00062141
1516.45,0.000675554
1517.41,0.000769131
1518.38,0.000805534
1519.34,0.000795527
1520.31,0.000780045
1521.27,0.000733645
1522.23,0.000720303
1523.2,0.000773605
1524.16,0.000838207
1525.13,0.000858463
1526.09,0.00084106
1527.06,0.000828751
1528.02,0.000836783
1528.98,0.000819986
1529.95,0.000735617
1530.91,0.000630183
1531.88,0.000584463
1532.84,0.000600751
1533.81,0.000646687
1534.77,0.000691287
1535.73,0.000702041
1536.7,0.000670918
1537.66,0.000626265
1538.63,0.000598323
1539.59,0.000592947
1540.55,0.000605012
1541.52,0.00062496
1542.48,0.000600369
1543.45,0.000486929
1544.41,0.000375872
1545.38,0.000364666
1546.34,0.000429021
1547.3,0.000498392
1548.27,0.000554112
1549.23,0.000636467
1550.2,0.000753349
1551.16,0.00087613
1552.12,0.001008787
1553.09,0.001170056
1554.05,0.001344819
1555.02,0.001566268
1555.98,0.00168083
1556.95,0.001587306
1557.91,0.001340932
1558.88,0.000918683
1559.84,0.000477428
1560.8,0.000190672
1561.77,7.21081E-05
1562.73,6.18018E-05
1563.7,0.000125516
1564.66,0.000203528
1565.62,0.000234758
1566.59,0.00022673
1567.55,0.0001946
1568.52,0.00012417
1569.48,8.98941E-05
1570.45,0.000127763
1571.41,0.000137839
1572.37,0.000117877
1573.34,7.81436E-05
1574.3,-6.68629E-06
1575.27,-0.000103825
1576.23,-0.000151872
1577.19,-0.000138108
1578.16,-9.87165E-05
1579.12,-6.18951E-05
1580.09,-3.81446E-05
1581.05,-5.56337E-05
1582.02,-0.000128505
1582.98,-0.000175282
1583.94,-0.000147789
1584.91,-0.000126617
1585.87,-0.000133511
1586.84,-0.000156361
1587.8,-0.000219051
1588.77,-0.000296156
1589.73,-0.000329477
1590.69,-0.000303893
1591.66,-0.00025852
1592.62,-0.000234477
1593.59,-0.000243282
1594.55,-0.000290087
1595.52,-0.000376839
1596.48,-0.000449239
1597.44,-0.000465202
1598.41,-0.000507988
1599.37,-0.000621858
