RamanShift,SLS2
49.85,-0.000109631
50.81,-9.77928E-05
51.78,-8.82884E-05
52.74,-8.09435E-05
53.71,-7.19701E-05
54.67,-5.69337E-05
55.64,-2.89357E-05
56.6,-2.69882E-06
57.56,2.03009E-05
58.53,3.94737E-05
59.49,5.46255E-05
60.46,6.09559E-05
61.42,6.29389E-05
62.38,5.74095E-05
63.35,4.54807E-05
64.31,3.40504E-05
65.28,3.50888E-05
66.24,4.23115E-05
67.21,5.43959E-05
68.17,7.04167E-05
69.13,9.10795E-05
70.1,0.000113276
71.06,0.000135681
72.03,0.000154889
72.99,0.000166468
73.96,0.000167594
74.92,0.000169819
75.88,0.000169544
76.85,0.000166824
77.81,0.000165882
78.78,0.000169223
79.74,0.00017403
80.71,0.000181905
81.67,0.000193119
82.63,0.000203089
83.6,0.000205035
84.56,0.000201944
85.53,0.000196304
86.49,0.000190539
87.45,0.000191591
88.42,0.000204312
89.38,0.00022497
90.35,0.000248607
91.31,0.000267244
92.28,0.000280791
93.24,0.000286507
94.2,0.00028271
95.17,0.000271187
96.13,0.000261619
97.1,0.000247053
98.06,0.000235185
99.03,0.000228191
99.99,0.000226193
100.95,0.000227524
101.92,0.000238225
102.88,0.000252771
103.85,0.000269026
104.81,0.000285171
105.78,0.000298958
106.74,0.000305179
107.7,0.000304021
108.67,0.000296045
109.63,0.000283397
110.6,0.000263543
111.56,0.000251033
112.52,0.00025017
113.49,0.0002606
114.45,0.000270447
115.42,0.000276563
116.38,0.000279279
117.35,0.000280324
118.31,0.000281259
119.27,0.000279046
120.24,0.000274947
121.2,0.000275245
122.17,0.000282033
123.13,0.000294633
124.1,0.000301922
125.06,0.000298344
126.02,0.000286666
126.99,0.000271186
127.95,0.000258308
128.92,0.000252223
129.88,0.000248611
130.85,0.000245471
131.81,0.00024215
132.77,0.000239794
133.74,0.000241983
134.7,0.000245531
135.67,0.000249906
136.63,0.000254425
137.59,0.000254515
138.56,0.000252975
139.52,0.000250361
140.49,0.000246015
141.45,0.000238991
142.42,0.000229955
143.38,0.000216949
144.34,0.000199588
145.31,0.000179629
146.27,0.000161199
147.24,0.000152842
148.2,0.000152775
149.17,0.000158292
150.13,0.000166637
151.09,0.000174205
152.06,0.000181454
153.02,0.000183906
153.99,0.0001816
154.95,0.0001758
155.92,0.000169533
156.88,0.000160115
157.84,0.000149138
158.81,0.000138591
159.77,0.000129828
160.74,0.000123966
161.7,0.000117951
162.66,0.000109514
163.63,9.93039E-05
164.59,8.88629E-05
165.56,8.27225E-05
166.52,8.19122E-05
167.49,8.55002E-05
168.45,9.26714E-05
169.41,0.000102032
170.38,0.000108912
171.34,0.000105181
172.31,9.51907E-05
173.27,8.24545E-05
174.24,7.22282E-05
175.2,6.43772E-05
176.16,6.03811E-05
177.13,5.6711E-05
178.09,5.13291E-05
179.06,4.31678E-05
180.02,4.15002E-05
180.99,4.65084E-05
181.95,5.35007E-05
182.91,5.82624E-05
183.88,5.62159E-05
184.84,4.56563E-05
185.81,3.60041E-05
186.77,3.14794E-05
187.74,3.33339E-05
188.7,3.72365E-05
189.66,3.5764E-05
190.63,2.96948E-05
191.59,2.02951E-05
192.56,1.09678E-05
193.52,1.03834E-05
194.48,1.80501E-05
195.45,1.96522E-05
196.41,1.33618E-05
197.38,2.37173E-06
198.34,-7.49192E-07
199.31,9.34659E-06
200.27,2.35662E-05
201.23,3.8756E-05
202.2,5.24211E-05
203.16,6.40111E-05
204.13,7.42451E-05
205.09,8.38539E-05
206.06,9.30877E-05
207.02,0.000101926
207.98,0.000108254
208.95,0.000109899
209.91,0.000113956
210.88,0.000123725
211.84,0.000139318
212.81,0.000152404
213.77,0.000157951
214.73,0.000163011
215.7,0.00017149
216.66,0.000185974
217.63,0.000201795
218.59,0.000210679
219.55,0.000215073
220.52,0.000218946
221.48,0.000226629
222.45,0.000239403
223.41,0.00025173
224.38,0.000260652
225.34,0.000265467
226.3,0.000266405
227.27,0.000270083
228.23,0.000281111
229.2,0.000299053
230.16,0.000323393
231.13,0.000352106
232.09,0.000377389
233.05,0.000395073
234.02,0.000407581
234.98,0.000415392
235.95,0.000418146
236.91,0.000422501
237.88,0.000437024
238.84,0.000459235
239.8,0.000486656
240.77,0.000517083
241.73,0.000548164
242.7,0.000581316
243.66,0.000616506
244.62,0.000650724
245.59,0.000680565
246.55,0.000701706
247.52,0.000721366
248.48,0.000741178
249.45,0.000761577
250.41,0.000782485
251.37,0.000808579
252.34,0.000836418
253.3,0.000867728
254.27,0.000903759
255.23,0.000944117
256.2,0.000977619
257.16,0.000993324
258.12,0.00100285
259.09,0.001017708
260.05,0.001048752
261.02,0.001102802
261.98,0.001160005
262.95,0.001209081
263.91,0.001245911
264.87,0.001271117
265.84,0.001290008
266.8,0.001310528
267.77,0.001333241
268.73,0.001358429
269.69,0.001387398
270.66,0.001421874
271.62,0.001466608
272.59,0.00151668
273.55,0.001567133
274.52,0.001611614
275.48,0.001646563
276.44,0.00166696
277.41,0.001677212
278.37,0.001691153
279.34,0.001724098
280.3,0.001791327
281.27,0.001877474
282.23,0.001960937
283.19,0.002030197
284.16,0.002078686
285.12,0.002109323
286.09,0.002150707
287.05,0.002206718
288.02,0.002272963
288.98,0.002341873
289.94,0.002406053
290.91,0.002461536
291.87,0.002510626
292.84,0.002558421
293.8,0.002609617
294.76,0.002672113
295.73,0.002752145
296.69,0.002832716
297.66,0.002907173
298.62,0.002975143
299.59,0.003042392
300.55,0.003112363
301.51,0.003176764
302.48,0.003239917
303.44,0.003301961
304.41,0.003359374
305.37,0.003398821
306.34,0.003440592
307.3,0.003503268
308.26,0.003587776
309.23,0.003686298
310.19,0.003784926
311.16,0.003878591
312.12,0.003961403
313.09,0.004032574
314.05,0.004095062
315.01,0.004161982
315.98,0.004244175
316.94,0.00432626
317.91,0.00440047
318.87,0.004462211
319.83,0.004512526
320.8,0.004558694
321.76,0.004617339
322.73,0.004690078
323.69,0.004773539
324.66,0.004858306
325.62,0.004939741
326.58,0.005015366
327.55,0.005084246
328.51,0.00514799
329.48,0.005215019
330.44,0.005295154
331.41,0.005386315
332.37,0.005483805
333.33,0.005583052
334.3,0.005678273
335.26,0.005759555
336.23,0.005834955
337.19,0.005917208
338.16,0.006009695
339.12,0.006112019
340.08,0.006222869
341.05,0.006337591
342.01,0.006448201
342.98,0.006546143
343.94,0.006623838
344.91,0.006677576
345.87,0.006741059
346.83,0.0068384
347.8,0.006958101
348.76,0.007081826
349.73,0.007191354
350.69,0.007284792
351.65,0.007381122
352.62,0.00747831
353.58,0.00757402
354.55,0.007668133
355.51,0.007775045
356.48,0.007890779
357.44,0.008003191
358.4,0.008111403
359.37,0.008217513
360.33,0.008316004
361.3,0.008393208
362.26,0.00846311
363.23,0.008536069
364.19,0.008617085
365.15,0.008705403
366.12,0.008803199
367.08,0.008904359
368.05,0.009001293
369.01,0.009089577
369.98,0.009169688
370.94,0.00925688
371.9,0.009348896
372.87,0.009437931
373.83,0.00952567
374.8,0.009620714
375.76,0.009717083
376.72,0.009800298
377.69,0.009892687
378.65,0.009991104
379.62,0.010089052
380.58,0.010175119
381.55,0.01026201
382.51,0.010343569
383.47,0.010416778
384.44,0.010490584
385.4,0.010581845
386.37,0.010714424
387.33,0.010869599
388.3,0.011022006
389.26,0.011150939
390.22,0.011246956
391.19,0.011310116
392.15,0.011384776
393.12,0.011487037
394.08,0.011604687
395.05,0.011728189
396.01,0.011849766
396.97,0.011971215
397.94,0.012092253
398.9,0.012198587
399.87,0.012281708
400.83,0.012342641
401.79,0.012412289
402.76,0.012516241
403.72,0.012640313
404.69,0.012770441
405.65,0.012897113
406.62,0.013031342
407.58,0.013198592
408.54,0.013366606
409.51,0.013512459
410.47,0.013622496
411.44,0.013698763
412.4,0.013767457
413.37,0.013872373
414.33,0.013998093
415.29,0.014122111
416.26,0.014225454
417.22,0.014318851
418.19,0.014436455
419.15,0.014581393
420.12,0.014738027
421.08,0.014885746
422.04,0.015007437
423.01,0.015111627
423.97,0.015212694
424.94,0.015308363
425.9,0.015405473
426.86,0.01551992
427.83,0.01567668
428.79,0.015842144
429.76,0.015981501
430.72,0.016096536
431.69,0.0162006
432.65,0.016306157
433.61,0.016427871
434.58,0.016576128
435.54,0.016740447
436.51,0.016904408
437.47,0.017046761
438.44,0.017155644
439.4,0.017253031
440.36,0.017354764
441.33,0.01746053
442.29,0.017566171
443.26,0.017671059
444.22,0.017800349
445.19,0.017958653
446.15,0.018135208
447.11,0.018317479
448.08,0.018490294
449.04,0.018635772
450.01,0.018752298
450.97,0.018859415
451.93,0.018975257
452.9,0.019108903
453.86,0.019253432
454.83,0.019372797
455.79,0.019451157
456.76,0.019497079
457.72,0.019526043
458.68,0.019564302
459.65,0.019648639
460.61,0.019777503
461.58,0.019922003
462.54,0.020059492
463.51,0.020180653
464.47,0.020290348
465.43,0.020400269
466.4,0.020493644
467.36,0.020567197
468.33,0.020617638
469.29,0.020641004
470.26,0.020644301
471.22,0.020678829
472.18,0.020743577
473.15,0.020813362
474.11,0.020871063
475.08,0.020916697
476.04,0.020976204
477.01,0.021044477
477.97,0.021110321
478.93,0.021170862
479.9,0.021232947
480.86,0.021304529
481.83,0.021392296
482.79,0.021479733
483.75,0.021552598
484.72,0.021599359
485.68,0.021614892
486.65,0.021609444
487.61,0.021600277
488.58,0.021586697
489.54,0.021562792
490.5,0.021529082
491.47,0.021487025
492.43,0.021460863
493.4,0.021466104
494.36,0.021502771
495.33,0.021556112
496.29,0.021603142
497.25,0.021621445
498.22,0.021611474
499.18,0.021598572
500.15,0.021604223
501.11,0.021641908
502.08,0.021713136
503.04,0.021779894
504,0.021831238
504.97,0.021885008
505.93,0.021946032
506.9,0.022016609
507.86,0.022094465
508.82,0.022196219
509.79,0.022304637
510.75,0.022398968
511.72,0.022484151
512.68,0.022571794
513.65,0.022686268
514.61,0.02281137
515.57,0.022922874
516.54,0.02303123
517.5,0.023146323
518.47,0.023279406
519.43,0.023403256
520.4,0.023507718
521.36,0.023604691
522.32,0.023711062
523.29,0.023845935
524.25,0.024027806
525.22,0.024231483
526.18,0.02439401
527.15,0.024540093
528.11,0.024704649
529.07,0.02492583
530.04,0.025222375
531,0.025554936
531.97,0.025880145
532.93,0.026180709
533.89,0.026443519
534.86,0.026670013
535.82,0.026876671
536.79,0.027097293
537.75,0.027298897
538.72,0.027476406
539.68,0.027633418
540.64,0.027788847
541.61,0.027966721
542.57,0.02820364
543.54,0.02849256
544.5,0.028787348
545.47,0.029041621
546.43,0.029225714
547.39,0.029358199
548.36,0.029463278
549.32,0.029518815
550.29,0.029525774
551.25,0.029505436
552.22,0.029507288
553.18,0.029553434
554.14,0.029651404
555.11,0.029780118
556.07,0.029885121
557.04,0.02991985
558,0.029893556
558.96,0.029899244
559.93,0.029904251
560.89,0.029867894
561.86,0.029767681
562.82,0.029606297
563.79,0.029398391
564.75,0.029199794
565.71,0.029040884
566.68,0.02891919
567.64,0.028813221
568.61,0.028699064
569.57,0.028570875
570.54,0.028433444
571.5,0.028281723
572.46,0.02811882
573.43,0.027947382
574.39,0.027768622
575.36,0.027577739
576.32,0.02738177
577.29,0.027193472
578.25,0.026990528
579.21,0.026752647
580.18,0.026483603
581.14,0.026258393
582.11,0.026107824
583.07,0.025988954
584.03,0.025857519
585,0.025683192
585.96,0.025453861
586.93,0.025181031
587.89,0.024909834
588.86,0.02467966
589.82,0.02450166
590.78,0.024357517
591.75,0.024201178
592.71,0.023963736
593.68,0.023706278
594.64,0.0234567
595.61,0.023217304
596.57,0.022984831
597.53,0.022759604
598.5,0.022519207
599.46,0.022232957
600.43,0.021921285
601.39,0.021607781
602.36,0.021310498
603.32,0.02102973
604.28,0.02076754
605.25,0.020541584
606.21,0.020325386
607.18,0.020089906
608.14,0.019809113
609.1,0.01948467
610.07,0.019164162
611.03,0.018881918
612,0.018625164
612.96,0.018366822
613.93,0.018091266
614.89,0.01782039
615.85,0.017587561
616.82,0.017365447
617.78,0.01714957
618.75,0.016939422
619.71,0.016735608
620.68,0.016535162
621.64,0.016305101
622.6,0.016047017
623.57,0.015775237
624.53,0.015513666
625.5,0.015283443
626.46,0.015088271
627.43,0.014943004
628.39,0.014804676
629.35,0.014638204
630.32,0.014447899
631.28,0.014261543
632.25,0.014102293
633.21,0.013970918
634.18,0.01384842
635.14,0.013713065
636.1,0.013554762
637.07,0.01337352
638.03,0.013185889
639,0.013034914
639.96,0.012928257
640.92,0.012842438
641.89,0.012743091
642.85,0.012609557
643.82,0.012444832
644.78,0.012249555
645.75,0.012040233
646.71,0.01186218
647.67,0.011736086
648.64,0.011658418
649.6,0.011585584
650.57,0.011460961
651.53,0.011304232
652.5,0.011140243
653.46,0.010968503
654.42,0.010787838
655.39,0.010613491
656.35,0.010483582
657.32,0.010379506
658.28,0.0102596
659.25,0.010122768
660.21,0.009976862
661.17,0.009828975
662.14,0.009668146
663.1,0.009525971
664.07,0.009404323
665.03,0.009284805
665.99,0.009152165
666.96,0.009003727
667.92,0.008847479
668.89,0.008693599
669.85,0.008533285
670.82,0.008372503
671.78,0.008222249
672.74,0.008084166
673.71,0.007954224
674.67,0.007802243
675.64,0.007641246
676.6,0.007485201
677.57,0.007334426
678.53,0.007187222
679.49,0.007048066
680.46,0.006915709
681.42,0.006766835
682.39,0.006598724
683.35,0.006432754
684.32,0.006292384
685.28,0.006187672
686.24,0.006070908
687.21,0.00590862
688.17,0.005742686
689.14,0.005598178
690.1,0.00547795
691.06,0.005367542
692.03,0.005240643
692.99,0.00508517
693.96,0.004923319
694.92,0.004777043
695.89,0.004643657
696.85,0.004505236
697.81,0.004344007
698.78,0.00419866
699.74,0.004055686
700.71,0.003907792
701.67,0.003769767
702.64,0.003650816
703.6,0.003540377
704.56,0.003429534
705.53,0.003336453
706.49,0.00324901
707.46,0.003158293
708.42,0.003071749
709.39,0.003007697
710.35,0.002964655
711.31,0.002887957
712.28,0.002765257
713.24,0.002646672
714.21,0.002564455
715.17,0.002520237
716.13,0.002457435
717.1,0.002325202
718.06,0.002217142
719.03,0.002165872
719.99,0.002145327
720.96,0.002123188
721.92,0.002086959
722.88,0.002047503
723.85,0.002001725
724.81,0.001949508
725.78,0.001908076
726.74,0.001885256
727.71,0.001876508
728.67,0.001848829
729.63,0.001794324
730.6,0.001742825
731.56,0.001680067
732.53,0.001629783
733.49,0.00162363
734.46,0.001668248
735.42,0.001689146
736.38,0.001667139
737.35,0.0016435
738.31,0.001637326
739.28,0.001655139
740.24,0.001697003
741.2,0.00175987
742.17,0.00182618
743.13,0.001889464
744.1,0.001948157
745.06,0.001997293
746.03,0.002028852
746.99,0.002044251
747.95,0.002082427
748.92,0.002107763
749.88,0.002146163
750.85,0.002218977
751.81,0.00231485
752.78,0.002396352
753.74,0.00247151
754.7,0.002576445
755.67,0.002683426
756.63,0.002780798
757.6,0.002865337
758.56,0.002941843
759.53,0.003020285
760.49,0.003128746
761.45,0.003272413
762.42,0.003401632
763.38,0.003499552
764.35,0.003579477
765.31,0.003677975
766.28,0.003803618
767.24,0.003911146
768.2,0.004008923
769.17,0.004102031
770.13,0.004195348
771.1,0.004290729
772.06,0.004389682
773.02,0.004510937
773.99,0.004639404
774.95,0.004761407
775.92,0.004866867
776.88,0.004945319
777.85,0.004988284
778.81,0.004993692
779.77,0.00500426
780.74,0.005056034
781.7,0.005128454
782.67,0.005199475
783.63,0.00524994
784.6,0.005267889
785.56,0.005249549
786.52,0.005243215
787.49,0.005273324
788.45,0.005324231
789.42,0.005370163
790.38,0.005391772
791.35,0.005389133
792.31,0.005384632
793.27,0.005380094
794.24,0.005366888
795.2,0.005337738
796.17,0.005282259
797.13,0.005198353
798.09,0.005093054
799.06,0.004991057
800.02,0.004904531
800.99,0.004842584
801.95,0.004789211
802.92,0.00472867
803.88,0.004673165
804.84,0.004645952
805.81,0.004588443
806.77,0.004473543
807.74,0.004336912
808.7,0.004210529
809.67,0.004101765
810.63,0.003983614
811.59,0.003821929
812.56,0.003638225
813.52,0.003461098
814.49,0.003279905
815.45,0.0030999
816.42,0.002935739
817.38,0.002803697
818.34,0.002669438
819.31,0.002540307
820.27,0.00241984
821.24,0.002284458
822.2,0.002124885
823.16,0.001955662
824.13,0.001797013
825.09,0.001628667
826.06,0.001437804
827.02,0.00124082
827.99,0.001052522
828.95,0.000882115
829.91,0.000738965
830.88,0.000621367
831.84,0.000518246
832.81,0.000426005
833.77,0.000359529
834.74,0.000302206
835.7,0.00022418
836.66,0.000119776
837.63,5.43976E-05
838.59,6.37823E-05
839.56,7.88546E-05
840.52,7.14069E-05
841.49,4.51468E-05
842.45,1.88014E-05
843.41,1.12666E-05
844.38,3.02045E-05
845.34,7.75815E-05
846.31,0.000140292
847.27,0.000206966
848.23,0.000271938
849.2,0.000348552
850.16,0.000455873
851.13,0.000639906
852.09,0.000805321
853.06,0.000896574
854.02,0.00097847
854.98,0.001099006
855.95,0.001267998
856.91,0.001458613
857.88,0.001680669
858.84,0.001911032
859.81,0.002107294
860.77,0.002278871
861.73,0.002470331
862.7,0.002712885
863.66,0.003002703
864.63,0.003281742
865.59,0.003567316
866.56,0.003865504
867.52,0.004133129
868.48,0.004381922
869.45,0.004672658
870.41,0.005056413
871.38,0.005419681
872.34,0.005734635
873.3,0.006078027
874.27,0.006434345
875.23,0.006799406
876.2,0.007197274
877.16,0.007667477
878.13,0.008160943
879.09,0.008589995
880.05,0.008990329
881.02,0.009401854
881.98,0.009836306
882.95,0.010280077
883.91,0.010728889
884.88,0.011183059
885.84,0.011676418
886.8,0.012231388
887.77,0.012808177
888.73,0.013366142
889.7,0.013893498
890.66,0.014430114
891.63,0.01500077
892.59,0.015599024
893.55,0.016217129
894.52,0.016851352
895.48,0.017495101
896.45,0.018140823
897.41,0.0187961
898.37,0.019469443
899.34,0.020138716
900.3,0.020809428
901.27,0.021500591
902.23,0.022203517
903.2,0.022886149
904.16,0.023528823
905.12,0.024148389
906.09,0.024780199
907.05,0.025436233
908.02,0.026125147
908.98,0.026840338
909.95,0.027568314
910.91,0.028285081
911.87,0.028976595
912.84,0.029670467
913.8,0.030411393
914.77,0.03116924
915.73,0.031914132
916.7,0.032642266
917.66,0.033376184
918.62,0.034107519
919.59,0.034792758
920.55,0.035439405
921.52,0.03609636
922.48,0.036786335
923.45,0.037516374
924.41,0.038283707
925.37,0.03908707
926.34,0.039909727
927.3,0.040714954
928.27,0.041454381
929.23,0.042112134
930.19,0.042722166
931.16,0.043327828
932.12,0.043955967
933.09,0.044564562
934.05,0.045159202
935.02,0.045822246
935.98,0.046477654
936.94,0.047091755
937.91,0.047690471
938.87,0.048307449
939.84,0.048904689
940.8,0.049448547
941.77,0.050005382
942.73,0.050545256
943.69,0.051038554
944.66,0.051492522
945.62,0.051931351
946.59,0.052378393
947.55,0.052845396
948.52,0.053307803
949.48,0.053689277
950.44,0.05398385
951.41,0.054235822
952.37,0.054502953
953.34,0.054833191
954.3,0.055229294
955.26,0.055595348
956.23,0.055841371
957.19,0.055985347
958.16,0.056103683
959.12,0.056270223
960.09,0.056508838
961.05,0.056776067
962.01,0.056981467
962.98,0.057089878
963.94,0.057166405
964.91,0.057241479
965.87,0.057304646
966.84,0.057350636
967.8,0.057359941
968.76,0.057283528
969.73,0.057241473
970.69,0.05734929
971.66,0.057494039
972.62,0.057574811
973.59,0.057586529
974.55,0.057565462
975.51,0.057544415
976.48,0.057546591
977.44,0.05760671
978.41,0.057683487
979.37,0.057686911
980.33,0.057569116
981.3,0.057367374
982.26,0.057193728
983.23,0.057136951
984.19,0.057124977
985.16,0.057061014
986.12,0.057009565
987.08,0.056962439
988.05,0.056892747
989.01,0.056789729
989.98,0.056698574
990.94,0.056624813
991.91,0.05652136
992.87,0.056402885
993.83,0.056293254
994.8,0.056223174
995.76,0.056187176
996.73,0.056140016
997.69,0.056007731
998.66,0.055773227
999.62,0.055614181
1000.58,0.055520352
1001.55,0.055445357
1002.51,0.055395372
1003.48,0.055357327
1004.44,0.055292491
1005.41,0.055197687
1006.37,0.055134578
1007.33,0.055075897
1008.3,0.055015263
1009.26,0.054937097
1010.23,0.054842714
1011.19,0.054742538
1012.15,0.054670233
1013.12,0.054634188
1014.08,0.054597237
1015.05,0.05460839
1016.01,0.054701999
1016.98,0.054799004
1017.94,0.054825847
1018.9,0.054768836
1019.87,0.05470049
1020.83,0.05471491
1021.8,0.054842823
1022.76,0.055006306
1023.73,0.055166149
1024.69,0.055274444
1025.65,0.055317929
1026.62,0.05534273
1027.58,0.055436943
1028.55,0.055628827
1029.51,0.055827382
1030.48,0.055964067
1031.44,0.056049201
1032.4,0.05614146
1033.37,0.056295412
1034.33,0.056527219
1035.3,0.05680141
1036.26,0.057099873
1037.23,0.057475501
1038.19,0.057814407
1039.15,0.058063169
1040.12,0.058273774
1041.08,0.058503705
1042.05,0.058771446
1043.01,0.059024414
1043.97,0.05925784
1044.94,0.059547011
1045.9,0.059897608
1046.87,0.060272154
1047.83,0.060616695
1048.8,0.060922904
1049.76,0.061223978
1050.72,0.061577874
1051.69,0.062017911
1052.65,0.062505227
1053.62,0.062992038
1054.58,0.063459074
1055.55,0.063927562
1056.51,0.064401483
1057.47,0.064883628
1058.44,0.065372543
1059.4,0.065856627
1060.37,0.066289848
1061.33,0.066664899
1062.3,0.067026067
1063.26,0.067422739
1064.22,0.06789605
1065.19,0.068464802
1066.15,0.069102088
1067.12,0.069716127
1068.08,0.070274941
1069.04,0.070788832
1070.01,0.071296943
1070.97,0.071823061
1071.94,0.072333207
1072.9,0.072769391
1073.87,0.073104932
1074.83,0.073396413
1075.79,0.073696344
1076.76,0.073997411
1077.72,0.074303267
1078.69,0.074631375
1079.65,0.074987264
1080.62,0.075349839
1081.58,0.075686367
1082.54,0.076074929
1083.51,0.076542989
1084.47,0.076941099
1085.44,0.077221282
1086.4,0.077355624
1087.37,0.077358698
1088.33,0.077287579
1089.29,0.077250005
1090.26,0.077262639
1091.22,0.077219399
1092.19,0.077116411
1093.15,0.076983602
1094.11,0.076805533
1095.08,0.076554615
1096.04,0.076207288
1097.01,0.0757863
1097.97,0.075342274
1098.94,0.074950661
1099.9,0.074601983
1100.86,0.07425211
1101.83,0.073796683
1102.79,0.073148423
1103.76,0.072330114
1104.72,0.071484856
1105.69,0.070728671
1106.65,0.070052244
1107.61,0.069392538
1108.58,0.068705645
1109.54,0.067922946
1110.51,0.067042761
1111.47,0.06611962
1112.44,0.065211112
1113.4,0.06429462
1114.36,0.06331376
1115.33,0.062385292
1116.29,0.061521125
1117.26,0.060687649
1118.22,0.059897578
1119.18,0.059089204
1120.15,0.058198614
1121.11,0.057235015
1122.08,0.05628336
1123.04,0.055374904
1124.01,0.054467412
1124.97,0.053573757
1125.93,0.052702231
1126.9,0.051812964
1127.86,0.050850251
1128.83,0.04981502
1129.79,0.048815073
1130.76,0.047971871
1131.72,0.047251741
1132.68,0.046535704
1133.65,0.045779889
1134.61,0.044961446
1135.58,0.044144387
1136.54,0.043363194
1137.51,0.042578228
1138.47,0.041741382
1139.43,0.040907891
1140.4,0.040166885
1141.36,0.03947075
1142.33,0.038759632
1143.29,0.038043695
1144.25,0.037367754
1145.22,0.03676818
1146.18,0.036205749
1147.15,0.035589561
1148.11,0.034829488
1149.08,0.034095989
1150.04,0.033460979
1151,0.032863677
1151.97,0.032267912
1152.93,0.031676048
1153.9,0.031094421
1154.86,0.030519562
1155.83,0.029929701
1156.79,0.029346626
1157.75,0.028759157
1158.72,0.028156712
1159.68,0.02754409
1160.65,0.026935979
1161.61,0.026351673
1162.58,0.025811576
1163.54,0.025326648
1164.5,0.02489736
1165.47,0.024410525
1166.43,0.02385689
1167.4,0.023296547
1168.36,0.022748931
1169.32,0.02222861
1170.29,0.02172729
1171.25,0.021250324
1172.22,0.020789651
1173.18,0.020364945
1174.15,0.019973848
1175.11,0.019558677
1176.07,0.019110961
1177.04,0.018648006
1178,0.01821551
1178.97,0.017822536
1179.93,0.017431364
1180.9,0.017001889
1181.86,0.016577048
1182.82,0.016151259
1183.79,0.015692762
1184.75,0.01522147
1185.72,0.014778307
1186.68,0.014383385
1187.65,0.014031354
1188.61,0.013687119
1189.57,0.01333045
1190.54,0.012946768
1191.5,0.012553355
1192.47,0.012176696
1193.43,0.011807853
1194.4,0.011420673
1195.36,0.011044279
1196.32,0.010743365
1197.29,0.01051537
1198.25,0.010216099
1199.22,0.009801301
1200.18,0.009423832
1201.14,0.009089825
1202.11,0.008778732
1203.07,0.008496442
1204.04,0.008234315
1205,0.007959655
1205.97,0.007645798
1206.93,0.007322284
1207.89,0.007036724
1208.86,0.006792166
1209.82,0.006558969
1210.79,0.006331167
1211.75,0.006105833
1212.72,0.005859045
1213.68,0.005593694
1214.64,0.00533375
1215.61,0.005103185
1216.57,0.004866081
1217.54,0.004592357
1218.5,0.004345055
1219.47,0.004157409
1220.43,0.003999467
1221.39,0.003813983
1222.36,0.003588773
1223.32,0.003369106
1224.29,0.003215443
1225.25,0.003140217
1226.21,0.003019283
1227.18,0.002788727
1228.14,0.00259109
1229.11,0.002484196
1230.07,0.00241359
1231.04,0.002321397
1232,0.002207639
1232.96,0.00207831
1233.93,0.001924152
1234.89,0.001772721
1235.86,0.001685193
1236.82,0.001631201
1237.79,0.001549353
1238.75,0.001433528
1239.71,0.001323554
1240.68,0.001256337
1241.64,0.001213626
1242.61,0.001152192
1243.57,0.001087537
1244.54,0.00102262
1245.5,0.000942098
1246.46,0.000876831
1247.43,0.000829899
1248.39,0.000792184
1249.36,0.000757359
1250.32,0.000725574
1251.28,0.000702997
1252.25,0.000689577
1253.21,0.000682375
1254.18,0.000659398
1255.14,0.000623877
1256.11,0.000566242
1257.07,0.000489704
1258.03,0.000416082
1259,0.000373532
1259.96,0.000362321
1260.93,0.00035722
1261.89,0.000374153
1262.86,0.000384659
1263.82,0.000360508
1264.78,0.000333083
1265.75,0.000340199
1266.71,0.000359993
1267.68,0.000354337
1268.64,0.000313822
1269.61,0.000269888
1270.57,0.000273518
1271.53,0.000308866
1272.5,0.000312295
1273.46,0.000277534
1274.43,0.000229778
1275.39,0.000172376
1276.35,0.000124369
1277.32,0.000104866
1278.28,9.81515E-05
1279.25,8.16318E-05
1280.21,4.26587E-05
1281.18,2.91053E-05
1282.14,8.94574E-05
1283.1,0.000159499
1284.07,0.000158664
1285.03,0.000103074
1286,6.33151E-05
1286.96,7.51764E-05
1287.93,0.000115961
1288.89,0.000114802
1289.85,5.85117E-05
1290.82,3.4336E-05
1291.78,8.47824E-05
1292.75,0.000125391
1293.71,0.000143362
1294.68,0.000144903
1295.64,0.000123688
1296.6,8.27946E-05
1297.57,5.79437E-05
1298.53,7.55617E-05
1299.5,0.000106097
1300.46,0.000126921
1301.42,0.0001215
1302.39,9.61908E-05
1303.35,5.11884E-05
1304.32,1.90412E-05
1305.28,2.96465E-05
1306.25,7.62854E-05
1307.21,0.000116481
1308.17,0.000123694
1309.14,0.000107604
1310.1,8.8237E-05
1311.07,7.85523E-05
1312.03,9.54028E-05
1313,0.000128652
1313.96,0.000171983
1314.92,0.000198721
1315.89,0.000195384
1316.85,0.000152179
1317.82,9.86879E-05
1318.78,5.51656E-05
1319.75,1.80217E-05
1320.71,2.09619E-05
1321.67,0.00010408
1322.64,0.000163718
1323.6,0.000173297
1324.57,0.000162562
1325.53,0.000178733
1326.5,0.000218236
1327.46,0.000247804
1328.42,0.000267263
1329.39,0.000269697
1330.35,0.000231749
1331.32,0.000176633
1332.28,0.000128252
1333.24,9.66237E-05
1334.21,9.17941E-05
1335.17,0.000110762
1336.14,0.000143109
1337.1,0.000155239
1338.07,0.000156975
1339.03,0.000148602
1339.99,0.000143552
1340.96,0.000162121
1341.92,0.000197875
1342.89,0.000226641
1343.85,0.000265811
1344.82,0.000297987
1345.78,0.000296082
1346.74,0.000239278
1347.71,0.000175277
1348.67,0.000149025
1349.64,0.000149988
1350.6,0.000140736
1351.57,0.000124349
1352.53,0.000128716
1353.49,0.000170976
1354.46,0.000209629
1355.42,0.000196621
1356.39,0.000152219
1357.35,0.000132084
1358.31,0.000149975
1359.28,0.000174602
1360.24,0.000195917
1361.21,0.000213559
1362.17,0.000206998
1363.14,0.000189739
1364.1,0.000207421
1365.06,0.000263452
1366.03,0.000312364
1366.99,0.00031605
1367.96,0.000274023
1368.92,0.000221534
1369.89,0.00013716
1370.85,8.43287E-05
1371.81,7.34803E-05
1372.78,7.99411E-05
1373.74,0.000118206
1374.71,0.000166861
1375.67,0.000184016
1376.64,0.000172733
1377.6,0.000168624
1378.56,0.000196262
1379.53,0.000237853
1380.49,0.000258412
1381.46,0.000246862
1382.42,0.000249617
1383.38,0.000280729
1384.35,0.000290325
1385.31,0.00024316
1386.28,0.000195657
1387.24,0.000215924
1388.21,0.000296619
1389.17,0.000338331
1390.13,0.000305017
1391.1,0.000260657
1392.06,0.00029155
1393.03,0.000350916
1393.99,0.00038543
1394.96,0.000391031
1395.92,0.000371635
1396.88,0.000330574
1397.85,0.000292781
1398.81,0.000301916
1399.78,0.000361304
1400.74,0.000370417
1401.71,0.000299795
1402.67,0.000236434
1403.63,0.000227206
1404.6,0.000228571
1405.56,0.000222847
1406.53,0.000224111
1407.49,0.00024734
1408.45,0.000288744
1409.42,0.000319043
1410.38,0.000320417
1411.35,0.000310592
1412.31,0.000341063
1413.28,0.000426122
1414.24,0.000449345
1415.2,0.000388389
1416.17,0.000330723
1417.13,0.000287787
1418.1,0.000270196
1419.06,0.00029315
1420.03,0.000345291
1420.99,0.000390343
1421.95,0.000417014
1422.92,0.000443467
1423.88,0.000492282
1424.85,0.00054092
1425.81,0.000512202
1426.78,0.000423966
1427.74,0.000380188
1428.7,0.000432652
1429.67,0.000481234
1430.63,0.000452113
1431.6,0.000366921
1432.56,0.000259444
1433.52,0.000110778
1434.49,4.72797E-05
1435.45,0.000166618
1436.42,0.00030083
1437.38,0.000413054
1438.35,0.00048033
1439.31,0.000458082
1440.27,0.000360822
1441.24,0.000281863
1442.2,0.000281777
1443.17,0.000337764
1444.13,0.000401571
1445.1,0.000465213
1446.06,0.000476434
1447.02,0.000412235
1447.99,0.000370287
1448.95,0.00037001
1449.92,0.000384575
1450.88,0.000399369
1451.85,0.000410126
1452.81,0.000386993
1453.77,0.000337227
1454.74,0.00031747
1455.7,0.000370093
1456.67,0.000445354
1457.63,0.000475273
1458.59,0.000448047
1459.56,0.000454824
1460.52,0.000538164
1461.49,0.000564067
1462.45,0.000448733
1463.42,0.000302296
1464.38,0.000282232
1465.34,0.000361792
1466.31,0.000402834
1467.27,0.000367343
1468.24,0.000335353
1469.2,0.000376634
1470.17,0.000436961
1471.13,0.000435942
1472.09,0.000396309
1473.06,0.00037563
1474.02,0.000386057
1474.99,0.000400087
1475.95,0.000402749
1476.92,0.000397382
1477.88,0.000396113
1478.84,0.000387046
1479.81,0.00037768
1480.77,0.000387968
1481.74,0.000401881
1482.7,0.000396572
1483.67,0.000390968
1484.63,0.000409002
1485.59,0.000438753
1486.56,0.000448729
1487.52,0.000439393
1488.49,0.000445415
1489.45,0.000494799
1490.41,0.000563855
1491.38,0.000573856
1492.34,0.000521233
1493.31,0.000495763
1494.27,0.000482298
1495.24,0.000488225
1496.2,0.000565379
1497.16,0.000626859
1498.13,0.000605204
1499.09,0.000536308
1500.06,0.000490748
1501.02,0.000500797
1501.99,0.000518505
1502.95,0.000504754
1503.91,0.000479042
1504.88,0.000476845
1505.84,0.000530578
1506.81,0.000568194
1507.77,0.000590181
1508.74,0.000595968
1509.7,0.000578064
1510.66,0.000544132
1511.63,0.000505852
1512.59,0.000471762
1513.56,0.000425309
1514.52,0.000358982
1515.48,0.000320613
1516.45,0.000366217
1517.41,0.000460388
1518.38,0.000514205
1519.34,0.00053214
1520.31,0.000525633
1521.27,0.000450817
1522.23,0.000412182
1523.2,0.000474194
1524.16,0.000556792
1525.13,0.000574489
1526.09,0.000535771
1527.06,0.000512915
1528.02,0.000534914
1528.98,0.000524451
1529.95,0.000416132
1530.91,0.000275356
1531.88,0.000231756
1532.84,0.000265775
1533.81,0.000311794
1534.77,0.000349999
1535.73,0.000367834
1536.7,0.000344518
1537.66,0.000313252
1538.63,0.000318501
1539.59,0.00035273
1540.55,0.0003747
1541.52,0.000375883
1542.48,0.000352687
1543.45,0.00029214
1544.41,0.000235884
1545.38,0.000228683
1546.34,0.000258864
1547.3,0.000284962
1548.27,0.000306681
1549.23,0.000361793
1550.2,0.000474635
1551.16,0.000621082
1552.13,0.000796497
1553.09,0.000997382
1554.05,0.001223512
1555.02,0.00152038
1555.98,0.001668305
1556.95,0.001541486
1557.91,0.001277255
1558.88,0.000883039
1559.84,0.00048009
1560.8,0.000205935
1561.77,6.89616E-05
1562.73,1.99025E-05
1563.7,2.90853E-05
1564.66,6.37214E-05
1565.62,9.84161E-05
1566.59,0.000132876
1567.55,0.000117276
1568.52,4.24917E-05
1569.48,-6.87221E-06
1570.45,-1.02831E-05
1571.41,-7.55029E-07
1572.37,4.67613E-05
1573.34,7.71761E-05
1574.3,-6.15815E-06
1575.27,-0.000153367
1576.23,-0.000220092
1577.2,-0.0001686
1578.16,-9.12765E-05
1579.12,-7.74725E-05
1580.09,-0.000110657
1581.05,-0.000118088
1582.02,-0.000104551
1582.98,-9.92008E-05
1583.95,-9.83952E-05
1584.91,-0.000110076
1585.87,-0.000126035
1586.84,-0.00015513
1587.8,-0.000205341
1588.77,-0.000260207
1589.73,-0.000284874
1590.69,-0.000275281
1591.66,-0.000253093
1592.62,-0.000226261
1593.59,-0.000221162
1594.55,-0.000250144
1595.52,-0.000322507
1596.48,-0.000373136
1597.44,-0.000385035
1598.41,-0.000410188
1599.37,-0.000469611
